# OpenSignals Text File Format
# {"00:07:80:F9:DE:B2": {"sensor": ["ECG"], "device name": "00:07:80:F9:DE:B2", "column": ["nSeq", "DI", "CH1"], "sync interval": 2, "time": "14:23:45.617", "comments": "", "device connection": "BTH00:07:80:F9:DE:B2", "channels": [1], "keywords": "", "mode": 0, "digital IO": [0, 1], "firmware version": 773, "device": "biosignalsplux", "position": 0, "sampling rate": 1000, "label": ["CH1"], "resolution": [16], "date": "2018-9-25", "special": [{}]}}
# EndOfHeader
0	0	31696	
1	0	31680	
2	0	31656	
3	0	31640	
4	0	31608	
5	0	31592	
6	0	31576	
7	0	31552	
8	0	31560	
9	0	31540	
10	0	31512	
11	0	31496	
12	0	31488	
13	0	31488	
14	0	31484	
15	0	31472	
16	0	31468	
17	0	31460	
18	0	31464	
19	0	31464	
20	0	31448	
21	0	31432	
22	0	31432	
23	0	31432	
24	0	31416	
25	0	31408	
26	0	31440	
27	0	31448	
28	0	31456	
29	0	31464	
30	0	31464	
31	0	31488	
32	0	31520	
33	0	31536	
34	0	31552	
35	0	31560	
36	0	31576	
37	0	31584	
38	0	31600	
39	0	31624	
40	0	31648	
41	0	31656	
42	0	31680	
43	0	31696	
44	0	31720	
45	0	31744	
46	0	31760	
47	0	31776	
48	0	31808	
49	0	31832	
50	0	31840	
51	0	31880	
52	0	31912	
53	0	31936	
54	0	31964	
55	0	32000	
56	0	32016	
57	0	32040	
58	0	32052	
59	0	32072	
60	0	32104	
61	0	32136	
62	0	32152	
63	0	32168	
64	0	32216	
65	0	32216	
66	0	32232	
67	0	32232	
68	0	32248	
69	0	32280	
70	0	32288	
71	0	32304	
72	0	32328	
73	0	32360	
74	0	32372	
75	0	32368	
76	0	32368	
77	0	32376	
78	0	32384	
79	0	32400	
80	0	32416	
81	0	32408	
82	0	32408	
83	0	32396	
84	0	32396	
85	0	32368	
86	0	32360	
87	0	32360	
88	0	32356	
89	0	32352	
90	0	32336	
91	0	32320	
92	0	32312	
93	0	32304	
94	0	32320	
95	0	32332	
96	0	32332	
97	0	32360	
98	0	32360	
99	0	32380	
100	0	32400	
101	0	32400	
102	0	32376	
103	0	32376	
104	0	32368	
105	0	32356	
106	0	32352	
107	0	32352	
108	0	32352	
109	0	32352	
110	0	32368	
111	0	32368	
112	0	32368	
113	0	32376	
114	0	32392	
115	0	32400	
116	0	32408	
117	0	32384	
118	0	32392	
119	0	32416	
120	0	32424	
121	0	32392	
122	0	32392	
123	0	32360	
124	0	32344	
125	0	32332	
126	0	32328	
127	0	32312	
128	0	32312	
129	0	32300	
130	0	32298	
131	0	32308	
132	0	32304	
133	0	32312	
134	0	32320	
135	0	32344	
136	0	32352	
137	0	32344	
138	0	32336	
139	0	32336	
140	0	32328	
141	0	32340	
142	0	32320	
143	0	32320	
144	0	32328	
145	0	32332	
146	0	32344	
147	0	32360	
148	0	32360	
149	0	32368	
150	0	32384	
151	0	32400	
152	0	32420	
153	0	32416	
154	0	32456	
155	0	32472	
156	0	32488	
157	0	32480	
158	0	32480	
159	0	32480	
160	0	32472	
161	0	32460	
162	0	32440	
163	0	32424	
164	0	32416	
165	0	32408	
166	0	32392	
167	0	32376	
168	0	32364	
169	0	32336	
170	0	32332	
171	0	32328	
172	0	32336	
173	0	32344	
174	0	32344	
175	0	32336	
176	0	32344	
177	0	32352	
178	0	32352	
179	0	32352	
180	0	32352	
181	0	32344	
182	0	32336	
183	0	32312	
184	0	32280	
185	0	32268	
186	0	32248	
187	0	32224	
188	0	32204	
189	0	32200	
190	0	32216	
191	0	32240	
192	0	32224	
193	0	32216	
194	0	32204	
195	0	32200	
196	0	32212	
197	0	32244	
198	0	32256	
199	0	32268	
200	0	32256	
201	0	32256	
202	0	32256	
203	0	32252	
204	0	32248	
205	0	32248	
206	0	32248	
207	0	32248	
208	0	32236	
209	0	32236	
210	0	32216	
211	0	32212	
212	0	32216	
213	0	32216	
214	0	32232	
215	0	32240	
216	0	32248	
217	0	32272	
218	0	32272	
219	0	32256	
220	0	32240	
221	0	32224	
222	0	32216	
223	0	32204	
224	0	32196	
225	0	32192	
226	0	32192	
227	0	32192	
228	0	32180	
229	0	32178	
230	0	32180	
231	0	32176	
232	0	32176	
233	0	32184	
234	0	32184	
235	0	32176	
236	0	32188	
237	0	32192	
238	0	32184	
239	0	32164	
240	0	32136	
241	0	32152	
242	0	32160	
243	0	32184	
244	0	32180	
245	0	32156	
246	0	32152	
247	0	32160	
248	0	32184	
249	0	32180	
250	0	32184	
251	0	32176	
252	0	32192	
253	0	32220	
254	0	32256	
255	0	32268	
256	0	32296	
257	0	32304	
258	0	32320	
259	0	32352	
260	0	32376	
261	0	32396	
262	0	32400	
263	0	32408	
264	0	32424	
265	0	32432	
266	0	32440	
267	0	32448	
268	0	32460	
269	0	32480	
270	0	32504	
271	0	32504	
272	0	32520	
273	0	32536	
274	0	32560	
275	0	32576	
276	0	32576	
277	0	32584	
278	0	32600	
279	0	32600	
280	0	32592	
281	0	32600	
282	0	32596	
283	0	32576	
284	0	32568	
285	0	32568	
286	0	32568	
287	0	32560	
288	0	32544	
289	0	32552	
290	0	32552	
291	0	32552	
292	0	32544	
293	0	32544	
294	0	32548	
295	0	32536	
296	0	32536	
297	0	32528	
298	0	32520	
299	0	32512	
300	0	32512	
301	0	32504	
302	0	32504	
303	0	32488	
304	0	32472	
305	0	32468	
306	0	32448	
307	0	32424	
308	0	32416	
309	0	32400	
310	0	32396	
311	0	32404	
312	0	32392	
313	0	32384	
314	0	32376	
315	0	32368	
316	0	32368	
317	0	32368	
318	0	32360	
319	0	32328	
320	0	32320	
321	0	32300	
322	0	32292	
323	0	32256	
324	0	32224	
325	0	32208	
326	0	32192	
327	0	32184	
328	0	32168	
329	0	32176	
330	0	32176	
331	0	32168	
332	0	32172	
333	0	32176	
334	0	32184	
335	0	32192	
336	0	32192	
337	0	32192	
338	0	32200	
339	0	32208	
340	0	32208	
341	0	32208	
342	0	32200	
343	0	32208	
344	0	32208	
345	0	32216	
346	0	32200	
347	0	32208	
348	0	32192	
349	0	32200	
350	0	32220	
351	0	32208	
352	0	32216	
353	0	32224	
354	0	32224	
355	0	32216	
356	0	32216	
357	0	32216	
358	0	32216	
359	0	32200	
360	0	32200	
361	0	32192	
362	0	32168	
363	0	32164	
364	0	32168	
365	0	32160	
366	0	32152	
367	0	32152	
368	0	32160	
369	0	32160	
370	0	32152	
371	0	32168	
372	0	32168	
373	0	32184	
374	0	32184	
375	0	32200	
376	0	32192	
377	0	32176	
378	0	32168	
379	0	32176	
380	0	32160	
381	0	32168	
382	0	32176	
383	0	32172	
384	0	32160	
385	0	32152	
386	0	32136	
387	0	32112	
388	0	32096	
389	0	32088	
390	0	32104	
391	0	32088	
392	0	32084	
393	0	32068	
394	0	32048	
395	0	32032	
396	0	32008	
397	0	31992	
398	0	31952	
399	0	31928	
400	0	31920	
401	0	31916	
402	0	31912	
403	0	31904	
404	0	31904	
405	0	31904	
406	0	31896	
407	0	31892	
408	0	31896	
409	0	31904	
410	0	31896	
411	0	31896	
412	0	31880	
413	0	31880	
414	0	31880	
415	0	31896	
416	0	31888	
417	0	31904	
418	0	31904	
419	0	31896	
420	0	31888	
421	0	31884	
422	0	31884	
423	0	31872	
424	0	31872	
425	0	31864	
426	0	31856	
427	0	31836	
428	0	31816	
429	0	31816	
430	0	31824	
431	0	31816	
432	0	31812	
433	0	31820	
434	0	31816	
435	0	31796	
436	0	31812	
437	0	31824	
438	0	31820	
439	0	31816	
440	0	31824	
441	0	31816	
442	0	31808	
443	0	31808	
444	0	31824	
445	0	31832	
446	0	31832	
447	0	31844	
448	0	31864	
449	0	31880	
450	0	31896	
451	0	31904	
452	0	31928	
453	0	31920	
454	0	31920	
455	0	31928	
456	0	31936	
457	0	31956	
458	0	31968	
459	0	31992	
460	0	32000	
461	0	32012	
462	0	32032	
463	0	32056	
464	0	32088	
465	0	32120	
466	0	32160	
467	0	32188	
468	0	32236	
469	0	32276	
470	0	32288	
471	0	32312	
472	0	32344	
473	0	32352	
474	0	32368	
475	0	32384	
476	0	32416	
477	0	32440	
478	0	32464	
479	0	32472	
480	0	32496	
481	0	32528	
482	0	32552	
483	0	32556	
484	0	32576	
485	0	32576	
486	0	32592	
487	0	32624	
488	0	32636	
489	0	32640	
490	0	32660	
491	0	32672	
492	0	32696	
493	0	32712	
494	0	32744	
495	0	32808	
496	0	32856	
497	0	32876	
498	0	32888	
499	0	32896	
500	0	32920	
501	0	32944	
502	0	32964	
503	0	32976	
504	0	32992	
505	0	33024	
506	0	33080	
507	0	33112	
508	0	33136	
509	0	33176	
510	0	33200	
511	0	33256	
512	0	33296	
513	0	33320	
514	0	33336	
515	0	33344	
516	0	33344	
517	0	33344	
518	0	33352	
519	0	33368	
520	0	33376	
521	0	33392	
522	0	33404	
523	0	33408	
524	0	33404	
525	0	33404	
526	0	33392	
527	0	33376	
528	0	33344	
529	0	33312	
530	0	33256	
531	0	33208	
532	0	33152	
533	0	33088	
534	0	33028	
535	0	32936	
536	0	32840	
537	0	32752	
538	0	32680	
539	0	32648	
540	0	32664	
541	0	32704	
542	0	32760	
543	0	32816	
544	0	32888	
545	0	32960	
546	0	33024	
547	0	33104	
548	0	33232	
549	0	33428	
550	0	33688	
551	0	34000	
552	0	34328	
553	0	34744	
554	0	35232	
555	0	35808	
556	0	36448	
557	0	37164	
558	0	37896	
559	0	38648	
560	0	39440	
561	0	40184	
562	0	40856	
563	0	41480	
564	0	42112	
565	0	42752	
566	0	43304	
567	0	43760	
568	0	44072	
569	0	44232	
570	0	44232	
571	0	44024	
572	0	43712	
573	0	43296	
574	0	42792	
575	0	42208	
576	0	41568	
577	0	40856	
578	0	40112	
579	0	39344	
580	0	38560	
581	0	37768	
582	0	37032	
583	0	36392	
584	0	35904	
585	0	35524	
586	0	35244	
587	0	35040	
588	0	34880	
589	0	34736	
590	0	34592	
591	0	34448	
592	0	34316	
593	0	34184	
594	0	34040	
595	0	33888	
596	0	33744	
597	0	33592	
598	0	33432	
599	0	33296	
600	0	33144	
601	0	33032	
602	0	32952	
603	0	32888	
604	0	32820	
605	0	32760	
606	0	32728	
607	0	32672	
608	0	32624	
609	0	32592	
610	0	32560	
611	0	32528	
612	0	32496	
613	0	32480	
614	0	32456	
615	0	32440	
616	0	32448	
617	0	32456	
618	0	32448	
619	0	32428	
620	0	32408	
621	0	32370	
622	0	32336	
623	0	32304	
624	0	32264	
625	0	32240	
626	0	32224	
627	0	32216	
628	0	32212	
629	0	32192	
630	0	32178	
631	0	32176	
632	0	32160	
633	0	32160	
634	0	32168	
635	0	32176	
636	0	32164	
637	0	32160	
638	0	32156	
639	0	32160	
640	0	32144	
641	0	32128	
642	0	32104	
643	0	32096	
644	0	32080	
645	0	32040	
646	0	32040	
647	0	32048	
648	0	32060	
649	0	32064	
650	0	32056	
651	0	32048	
652	0	32048	
653	0	32020	
654	0	31976	
655	0	31980	
656	0	31968	
657	0	31968	
658	0	31976	
659	0	31984	
660	0	31968	
661	0	31964	
662	0	31960	
663	0	31992	
664	0	31984	
665	0	31992	
666	0	31980	
667	0	31968	
668	0	31968	
669	0	31968	
670	0	31952	
671	0	31944	
672	0	31936	
673	0	31928	
674	0	31916	
675	0	31920	
676	0	31912	
677	0	31912	
678	0	31892	
679	0	31892	
680	0	31864	
681	0	31840	
682	0	31816	
683	0	31808	
684	0	31800	
685	0	31800	
686	0	31792	
687	0	31800	
688	0	31808	
689	0	31800	
690	0	31800	
691	0	31784	
692	0	31784	
693	0	31816	
694	0	31808	
695	0	31816	
696	0	31832	
697	0	31840	
698	0	31848	
699	0	31856	
700	0	31856	
701	0	31856	
702	0	31840	
703	0	31832	
704	0	31824	
705	0	31808	
706	0	31816	
707	0	31800	
708	0	31792	
709	0	31784	
710	0	31800	
711	0	31812	
712	0	31832	
713	0	31836	
714	0	31840	
715	0	31856	
716	0	31868	
717	0	31872	
718	0	31872	
719	0	31888	
720	0	31900	
721	0	31896	
722	0	31884	
723	0	31872	
724	0	31856	
725	0	31864	
726	0	31848	
727	0	31848	
728	0	31832	
729	0	31840	
730	0	31848	
731	0	31832	
732	0	31840	
733	0	31848	
734	0	31848	
735	0	31832	
736	0	31832	
737	0	31824	
738	0	31832	
739	0	31832	
740	0	31816	
741	0	31816	
742	0	31808	
743	0	31800	
744	0	31784	
745	0	31776	
746	0	31756	
747	0	31736	
748	0	31736	
749	0	31724	
750	0	31752	
751	0	31736	
752	0	31728	
753	0	31720	
754	0	31720	
755	0	31712	
756	0	31712	
757	0	31736	
758	0	31728	
759	0	31704	
760	0	31696	
761	0	31688	
762	0	31656	
763	0	31624	
764	0	31596	
765	0	31584	
766	0	31568	
767	0	31552	
768	0	31552	
769	0	31576	
770	0	31592	
771	0	31612	
772	0	31624	
773	0	31608	
774	0	31608	
775	0	31616	
776	0	31656	
777	0	31656	
778	0	31664	
779	0	31672	
780	0	31672	
781	0	31672	
782	0	31680	
783	0	31680	
784	0	31680	
785	0	31696	
786	0	31720	
787	0	31752	
788	0	31776	
789	0	31784	
790	0	31808	
791	0	31824	
792	0	31844	
793	0	31856	
794	0	31860	
795	0	31856	
796	0	31864	
797	0	31880	
798	0	31912	
799	0	31912	
800	0	31904	
801	0	31912	
802	0	31912	
803	0	31912	
804	0	31888	
805	0	31888	
806	0	31876	
807	0	31872	
808	0	31864	
809	0	31856	
810	0	31852	
811	0	31832	
812	0	31816	
813	0	31824	
814	0	31824	
815	0	31816	
816	0	31816	
817	0	31808	
818	0	31808	
819	0	31788	
820	0	31776	
821	0	31776	
822	0	31764	
823	0	31740	
824	0	31712	
825	0	31684	
826	0	31680	
827	0	31680	
828	0	31676	
829	0	31672	
830	0	31672	
831	0	31656	
832	0	31656	
833	0	31640	
834	0	31640	
835	0	31640	
836	0	31624	
837	0	31616	
838	0	31592	
839	0	31568	
840	0	31536	
841	0	31536	
842	0	31504	
843	0	31480	
844	0	31480	
845	0	31472	
846	0	31464	
847	0	31448	
848	0	31444	
849	0	31440	
850	0	31440	
851	0	31440	
852	0	31456	
853	0	31468	
854	0	31480	
855	0	31496	
856	0	31496	
857	0	31504	
858	0	31516	
859	0	31520	
860	0	31512	
861	0	31512	
862	0	31508	
863	0	31504	
864	0	31528	
865	0	31528	
866	0	31524	
867	0	31536	
868	0	31548	
869	0	31560	
870	0	31584	
871	0	31616	
872	0	31624	
873	0	31640	
874	0	31664	
875	0	31696	
876	0	31720	
877	0	31736	
878	0	31752	
879	0	31784	
880	0	31800	
881	0	31820	
882	0	31836	
883	0	31832	
884	0	31856	
885	0	31840	
886	0	31856	
887	0	31880	
888	0	31892	
889	0	31916	
890	0	31928	
891	0	31936	
892	0	31956	
893	0	31968	
894	0	31960	
895	0	31944	
896	0	31952	
897	0	31952	
898	0	31968	
899	0	31984	
900	0	32000	
901	0	32024	
902	0	32032	
903	0	32048	
904	0	32064	
905	0	32088	
906	0	32088	
907	0	32088	
908	0	32096	
909	0	32120	
910	0	32152	
911	0	32168	
912	0	32200	
913	0	32216	
914	0	32252	
915	0	32276	
916	0	32304	
917	0	32312	
918	0	32328	
919	0	32328	
920	0	32344	
921	0	32344	
922	0	32344	
923	0	32344	
924	0	32352	
925	0	32360	
926	0	32364	
927	0	32368	
928	0	32388	
929	0	32384	
930	0	32400	
931	0	32396	
932	0	32392	
933	0	32400	
934	0	32408	
935	0	32400	
936	0	32408	
937	0	32420	
938	0	32432	
939	0	32452	
940	0	32448	
941	0	32456	
942	0	32476	
943	0	32464	
944	0	32448	
945	0	32440	
946	0	32440	
947	0	32416	
948	0	32400	
949	0	32380	
950	0	32376	
951	0	32376	
952	0	32384	
953	0	32392	
954	0	32376	
955	0	32376	
956	0	32408	
957	0	32424	
958	0	32432	
959	0	32424	
960	0	32428	
961	0	32408	
962	0	32384	
963	0	32376	
964	0	32360	
965	0	32360	
966	0	32352	
967	0	32352	
968	0	32352	
969	0	32360	
970	0	32356	
971	0	32336	
972	0	32344	
973	0	32352	
974	0	32360	
975	0	32368	
976	0	32392	
977	0	32408	
978	0	32416	
979	0	32424	
980	0	32400	
981	0	32392	
982	0	32384	
983	0	32384	
984	0	32368	
985	0	32376	
986	0	32380	
987	0	32396	
988	0	32420	
989	0	32448	
990	0	32456	
991	0	32472	
992	0	32464	
993	0	32480	
994	0	32508	
995	0	32528	
996	0	32532	
997	0	32532	
998	0	32544	
999	0	32552	
1000	0	32552	
1001	0	32528	
1002	0	32512	
1003	0	32520	
1004	0	32512	
1005	0	32504	
1006	0	32520	
1007	0	32488	
1008	0	32488	
1009	0	32480	
1010	0	32496	
1011	0	32488	
1012	0	32496	
1013	0	32508	
1014	0	32520	
1015	0	32544	
1016	0	32560	
1017	0	32552	
1018	0	32544	
1019	0	32544	
1020	0	32544	
1021	0	32536	
1022	0	32532	
1023	0	32528	
1024	0	32528	
1025	0	32536	
1026	0	32536	
1027	0	32536	
1028	0	32512	
1029	0	32492	
1030	0	32476	
1031	0	32472	
1032	0	32488	
1033	0	32472	
1034	0	32496	
1035	0	32512	
1036	0	32504	
1037	0	32520	
1038	0	32516	
1039	0	32496	
1040	0	32464	
1041	0	32440	
1042	0	32440	
1043	0	32432	
1044	0	32424	
1045	0	32400	
1046	0	32384	
1047	0	32360	
1048	0	32352	
1049	0	32352	
1050	0	32352	
1051	0	32368	
1052	0	32384	
1053	0	32396	
1054	0	32408	
1055	0	32408	
1056	0	32424	
1057	0	32432	
1058	0	32452	
1059	0	32440	
1060	0	32488	
1061	0	32536	
1062	0	32592	
1063	0	32616	
1064	0	32632	
1065	0	32664	
1066	0	32680	
1067	0	32696	
1068	0	32704	
1069	0	32680	
1070	0	32668	
1071	0	32644	
1072	0	32632	
1073	0	32624	
1074	0	32600	
1075	0	32600	
1076	0	32608	
1077	0	32620	
1078	0	32620	
1079	0	32636	
1080	0	32656	
1081	0	32664	
1082	0	32648	
1083	0	32648	
1084	0	32632	
1085	0	32624	
1086	0	32588	
1087	0	32576	
1088	0	32576	
1089	0	32560	
1090	0	32560	
1091	0	32560	
1092	0	32560	
1093	0	32556	
1094	0	32576	
1095	0	32576	
1096	0	32596	
1097	0	32600	
1098	0	32608	
1099	0	32600	
1100	0	32600	
1101	0	32600	
1102	0	32560	
1103	0	32544	
1104	0	32508	
1105	0	32480	
1106	0	32484	
1107	0	32472	
1108	0	32464	
1109	0	32452	
1110	0	32440	
1111	0	32440	
1112	0	32436	
1113	0	32442	
1114	0	32448	
1115	0	32456	
1116	0	32468	
1117	0	32472	
1118	0	32480	
1119	0	32480	
1120	0	32464	
1121	0	32448	
1122	0	32440	
1123	0	32424	
1124	0	32424	
1125	0	32416	
1126	0	32424	
1127	0	32408	
1128	0	32416	
1129	0	32400	
1130	0	32392	
1131	0	32376	
1132	0	32360	
1133	0	32368	
1134	0	32372	
1135	0	32376	
1136	0	32384	
1137	0	32384	
1138	0	32376	
1139	0	32360	
1140	0	32368	
1141	0	32360	
1142	0	32360	
1143	0	32368	
1144	0	32360	
1145	0	32352	
1146	0	32360	
1147	0	32352	
1148	0	32344	
1149	0	32344	
1150	0	32352	
1151	0	32344	
1152	0	32344	
1153	0	32344	
1154	0	32344	
1155	0	32328	
1156	0	32304	
1157	0	32288	
1158	0	32300	
1159	0	32320	
1160	0	32332	
1161	0	32344	
1162	0	32328	
1163	0	32328	
1164	0	32320	
1165	0	32296	
1166	0	32284	
1167	0	32288	
1168	0	32264	
1169	0	32272	
1170	0	32284	
1171	0	32304	
1172	0	32296	
1173	0	32264	
1174	0	32224	
1175	0	32176	
1176	0	32104	
1177	0	32056	
1178	0	31992	
1179	0	31920	
1180	0	31848	
1181	0	31760	
1182	0	31660	
1183	0	31560	
1184	0	31504	
1185	0	31488	
1186	0	31504	
1187	0	31544	
1188	0	31584	
1189	0	31632	
1190	0	31704	
1191	0	31772	
1192	0	31852	
1193	0	31960	
1194	0	32112	
1195	0	32312	
1196	0	32548	
1197	0	32832	
1198	0	33188	
1199	0	33608	
1200	0	34112	
1201	0	34712	
1202	0	35392	
1203	0	36120	
1204	0	36888	
1205	0	37708	
1206	0	38536	
1207	0	39312	
1208	0	40016	
1209	0	40648	
1210	0	41296	
1211	0	41928	
1212	0	42472	
1213	0	42920	
1214	0	43224	
1215	0	43336	
1216	0	43248	
1217	0	43008	
1218	0	42632	
1219	0	42136	
1220	0	41536	
1221	0	40864	
1222	0	40128	
1223	0	39328	
1224	0	38528	
1225	0	37720	
1226	0	36896	
1227	0	36096	
1228	0	35392	
1229	0	34792	
1230	0	34336	
1231	0	33984	
1232	0	33712	
1233	0	33500	
1234	0	33320	
1235	0	33176	
1236	0	33032	
1237	0	32892	
1238	0	32744	
1239	0	32616	
1240	0	32448	
1241	0	32296	
1242	0	32112	
1243	0	31976	
1244	0	31832	
1245	0	31672	
1246	0	31536	
1247	0	31424	
1248	0	31328	
1249	0	31236	
1250	0	31176	
1251	0	31136	
1252	0	31116	
1253	0	31104	
1254	0	31080	
1255	0	31056	
1256	0	31048	
1257	0	31050	
1258	0	31048	
1259	0	31040	
1260	0	31044	
1261	0	31052	
1262	0	31064	
1263	0	31048	
1264	0	31040	
1265	0	31040	
1266	0	31044	
1267	0	31064	
1268	0	31096	
1269	0	31120	
1270	0	31160	
1271	0	31136	
1272	0	31148	
1273	0	31168	
1274	0	31184	
1275	0	31192	
1276	0	31208	
1277	0	31204	
1278	0	31216	
1279	0	31216	
1280	0	31224	
1281	0	31236	
1282	0	31248	
1283	0	31252	
1284	0	31264	
1285	0	31268	
1286	0	31264	
1287	0	31264	
1288	0	31248	
1289	0	31248	
1290	0	31240	
1291	0	31224	
1292	0	31228	
1293	0	31232	
1294	0	31232	
1295	0	31244	
1296	0	31224	
1297	0	31224	
1298	0	31216	
1299	0	31216	
1300	0	31216	
1301	0	31224	
1302	0	31216	
1303	0	31228	
1304	0	31256	
1305	0	31252	
1306	0	31240	
1307	0	31232	
1308	0	31220	
1309	0	31208	
1310	0	31204	
1311	0	31192	
1312	0	31208	
1313	0	31208	
1314	0	31196	
1315	0	31208	
1316	0	31216	
1317	0	31232	
1318	0	31224	
1319	0	31232	
1320	0	31232	
1321	0	31216	
1322	0	31208	
1323	0	31228	
1324	0	31232	
1325	0	31256	
1326	0	31280	
1327	0	31304	
1328	0	31320	
1329	0	31336	
1330	0	31336	
1331	0	31352	
1332	0	31360	
1333	0	31392	
1334	0	31420	
1335	0	31464	
1336	0	31504	
1337	0	31544	
1338	0	31568	
1339	0	31600	
1340	0	31624	
1341	0	31632	
1342	0	31664	
1343	0	31680	
1344	0	31696	
1345	0	31720	
1346	0	31752	
1347	0	31792	
1348	0	31808	
1349	0	31820	
1350	0	31840	
1351	0	31880	
1352	0	31896	
1353	0	31928	
1354	0	31920	
1355	0	31936	
1356	0	31944	
1357	0	31952	
1358	0	31964	
1359	0	31976	
1360	0	31960	
1361	0	31944	
1362	0	31936	
1363	0	31940	
1364	0	31952	
1365	0	31944	
1366	0	31944	
1367	0	31952	
1368	0	31948	
1369	0	31952	
1370	0	31944	
1371	0	31960	
1372	0	31968	
1373	0	31976	
1374	0	31968	
1375	0	31984	
1376	0	32008	
1377	0	32024	
1378	0	32032	
1379	0	32036	
1380	0	32040	
1381	0	32048	
1382	0	32064	
1383	0	32064	
1384	0	32072	
1385	0	32076	
1386	0	32096	
1387	0	32088	
1388	0	32088	
1389	0	32108	
1390	0	32104	
1391	0	32120	
1392	0	32128	
1393	0	32136	
1394	0	32144	
1395	0	32148	
1396	0	32160	
1397	0	32176	
1398	0	32200	
1399	0	32208	
1400	0	32220	
1401	0	32228	
1402	0	32216	
1403	0	32232	
1404	0	32244	
1405	0	32248	
1406	0	32256	
1407	0	32264	
1408	0	32280	
1409	0	32308	
1410	0	32352	
1411	0	32352	
1412	0	32356	
1413	0	32352	
1414	0	32372	
1415	0	32392	
1416	0	32408	
1417	0	32424	
1418	0	32428	
1419	0	32424	
1420	0	32432	
1421	0	32440	
1422	0	32448	
1423	0	32456	
1424	0	32480	
1425	0	32480	
1426	0	32488	
1427	0	32480	
1428	0	32480	
1429	0	32516	
1430	0	32532	
1431	0	32544	
1432	0	32556	
1433	0	32560	
1434	0	32560	
1435	0	32584	
1436	0	32616	
1437	0	32616	
1438	0	32632	
1439	0	32640	
1440	0	32656	
1441	0	32664	
1442	0	32672	
1443	0	32664	
1444	0	32644	
1445	0	32616	
1446	0	32604	
1447	0	32604	
1448	0	32616	
1449	0	32596	
1450	0	32592	
1451	0	32616	
1452	0	32616	
1453	0	32616	
1454	0	32624	
1455	0	32616	
1456	0	32608	
1457	0	32592	
1458	0	32576	
1459	0	32552	
1460	0	32524	
1461	0	32500	
1462	0	32488	
1463	0	32480	
1464	0	32452	
1465	0	32432	
1466	0	32408	
1467	0	32380	
1468	0	32352	
1469	0	32304	
1470	0	32272	
1471	0	32252	
1472	0	32240	
1473	0	32228	
1474	0	32208	
1475	0	32204	
1476	0	32192	
1477	0	32192	
1478	0	32168	
1479	0	32136	
1480	0	32120	
1481	0	32104	
1482	0	32080	
1483	0	32072	
1484	0	32056	
1485	0	32040	
1486	0	32008	
1487	0	31984	
1488	0	31980	
1489	0	31968	
1490	0	31960	
1491	0	31952	
1492	0	31936	
1493	0	31936	
1494	0	31936	
1495	0	31944	
1496	0	31944	
1497	0	31908	
1498	0	31896	
1499	0	31888	
1500	0	31900	
1501	0	31888	
1502	0	31880	
1503	0	31872	
1504	0	31868	
1505	0	31864	
1506	0	31864	
1507	0	31856	
1508	0	31872	
1509	0	31880	
1510	0	31872	
1511	0	31880	
1512	0	31888	
1513	0	31904	
1514	0	31920	
1515	0	31936	
1516	0	31960	
1517	0	31968	
1518	0	31952	
1519	0	31952	
1520	0	31960	
1521	0	31952	
1522	0	31960	
1523	0	31968	
1524	0	31968	
1525	0	31984	
1526	0	32008	
1527	0	32000	
1528	0	32024	
1529	0	32048	
1530	0	32056	
1531	0	32064	
1532	0	32104	
1533	0	32112	
1534	0	32136	
1535	0	32144	
1536	0	32168	
1537	0	32200	
1538	0	32224	
1539	0	32224	
1540	0	32240	
1541	0	32252	
1542	0	32248	
1543	0	32256	
1544	0	32272	
1545	0	32272	
1546	0	32288	
1547	0	32300	
1548	0	32304	
1549	0	32328	
1550	0	32344	
1551	0	32364	
1552	0	32400	
1553	0	32408	
1554	0	32440	
1555	0	32460	
1556	0	32472	
1557	0	32476	
1558	0	32488	
1559	0	32504	
1560	0	32512	
1561	0	32520	
1562	0	32512	
1563	0	32504	
1564	0	32520	
1565	0	32536	
1566	0	32532	
1567	0	32524	
1568	0	32528	
1569	0	32536	
1570	0	32552	
1571	0	32568	
1572	0	32576	
1573	0	32560	
1574	0	32544	
1575	0	32552	
1576	0	32560	
1577	0	32576	
1578	0	32592	
1579	0	32600	
1580	0	32600	
1581	0	32584	
1582	0	32568	
1583	0	32544	
1584	0	32520	
1585	0	32520	
1586	0	32504	
1587	0	32488	
1588	0	32472	
1589	0	32460	
1590	0	32464	
1591	0	32448	
1592	0	32456	
1593	0	32448	
1594	0	32432	
1595	0	32432	
1596	0	32440	
1597	0	32424	
1598	0	32432	
1599	0	32424	
1600	0	32408	
1601	0	32384	
1602	0	32376	
1603	0	32368	
1604	0	32352	
1605	0	32344	
1606	0	32352	
1607	0	32344	
1608	0	32364	
1609	0	32344	
1610	0	32352	
1611	0	32356	
1612	0	32344	
1613	0	32336	
1614	0	32304	
1615	0	32296	
1616	0	32312	
1617	0	32320	
1618	0	32312	
1619	0	32296	
1620	0	32296	
1621	0	32288	
1622	0	32296	
1623	0	32304	
1624	0	32300	
1625	0	32300	
1626	0	32312	
1627	0	32320	
1628	0	32324	
1629	0	32328	
1630	0	32328	
1631	0	32332	
1632	0	32348	
1633	0	32352	
1634	0	32352	
1635	0	32344	
1636	0	32344	
1637	0	32336	
1638	0	32320	
1639	0	32320	
1640	0	32336	
1641	0	32332	
1642	0	32328	
1643	0	32316	
1644	0	32312	
1645	0	32320	
1646	0	32316	
1647	0	32320	
1648	0	32328	
1649	0	32344	
1650	0	32344	
1651	0	32352	
1652	0	32364	
1653	0	32376	
1654	0	32376	
1655	0	32384	
1656	0	32392	
1657	0	32408	
1658	0	32392	
1659	0	32404	
1660	0	32400	
1661	0	32384	
1662	0	32392	
1663	0	32392	
1664	0	32384	
1665	0	32392	
1666	0	32376	
1667	0	32380	
1668	0	32372	
1669	0	32376	
1670	0	32376	
1671	0	32392	
1672	0	32400	
1673	0	32392	
1674	0	32384	
1675	0	32388	
1676	0	32396	
1677	0	32396	
1678	0	32384	
1679	0	32360	
1680	0	32336	
1681	0	32312	
1682	0	32308	
1683	0	32292	
1684	0	32292	
1685	0	32280	
1686	0	32264	
1687	0	32252	
1688	0	32248	
1689	0	32228	
1690	0	32204	
1691	0	32172	
1692	0	32160	
1693	0	32148	
1694	0	32144	
1695	0	32144	
1696	0	32144	
1697	0	32140	
1698	0	32124	
1699	0	32120	
1700	0	32116	
1701	0	32120	
1702	0	32120	
1703	0	32104	
1704	0	32124	
1705	0	32112	
1706	0	32120	
1707	0	32128	
1708	0	32136	
1709	0	32136	
1710	0	32132	
1711	0	32128	
1712	0	32156	
1713	0	32168	
1714	0	32184	
1715	0	32208	
1716	0	32224	
1717	0	32224	
1718	0	32224	
1719	0	32224	
1720	0	32216	
1721	0	32224	
1722	0	32240	
1723	0	32232	
1724	0	32244	
1725	0	32256	
1726	0	32256	
1727	0	32272	
1728	0	32280	
1729	0	32280	
1730	0	32284	
1731	0	32296	
1732	0	32296	
1733	0	32304	
1734	0	32304	
1735	0	32320	
1736	0	32320	
1737	0	32328	
1738	0	32328	
1739	0	32344	
1740	0	32336	
1741	0	32336	
1742	0	32328	
1743	0	32320	
1744	0	32324	
1745	0	32320	
1746	0	32312	
1747	0	32296	
1748	0	32296	
1749	0	32284	
1750	0	32264	
1751	0	32256	
1752	0	32244	
1753	0	32216	
1754	0	32224	
1755	0	32216	
1756	0	32232	
1757	0	32256	
1758	0	32264	
1759	0	32268	
1760	0	32268	
1761	0	32256	
1762	0	32272	
1763	0	32264	
1764	0	32256	
1765	0	32256	
1766	0	32248	
1767	0	32248	
1768	0	32264	
1769	0	32280	
1770	0	32280	
1771	0	32276	
1772	0	32272	
1773	0	32288	
1774	0	32276	
1775	0	32272	
1776	0	32264	
1777	0	32256	
1778	0	32260	
1779	0	32256	
1780	0	32264	
1781	0	32252	
1782	0	32240	
1783	0	32224	
1784	0	32224	
1785	0	32224	
1786	0	32240	
1787	0	32248	
1788	0	32240	
1789	0	32264	
1790	0	32272	
1791	0	32288	
1792	0	32288	
1793	0	32288	
1794	0	32288	
1795	0	32300	
1796	0	32312	
1797	0	32304	
1798	0	32320	
1799	0	32308	
1800	0	32312	
1801	0	32296	
1802	0	32300	
1803	0	32288	
1804	0	32272	
1805	0	32264	
1806	0	32256	
1807	0	32272	
1808	0	32272	
1809	0	32248	
1810	0	32252	
1811	0	32248	
1812	0	32276	
1813	0	32264	
1814	0	32280	
1815	0	32304	
1816	0	32308	
1817	0	32304	
1818	0	32296	
1819	0	32284	
1820	0	32288	
1821	0	32284	
1822	0	32252	
1823	0	32216	
1824	0	32168	
1825	0	32124	
1826	0	32064	
1827	0	31984	
1828	0	31904	
1829	0	31776	
1830	0	31664	
1831	0	31576	
1832	0	31528	
1833	0	31488	
1834	0	31504	
1835	0	31552	
1836	0	31612	
1837	0	31680	
1838	0	31760	
1839	0	31816	
1840	0	31888	
1841	0	32016	
1842	0	32184	
1843	0	32420	
1844	0	32720	
1845	0	33088	
1846	0	33484	
1847	0	33956	
1848	0	34504	
1849	0	35160	
1850	0	35896	
1851	0	36680	
1852	0	37496	
1853	0	38344	
1854	0	39192	
1855	0	40008	
1856	0	40776	
1857	0	41536	
1858	0	42264	
1859	0	42928	
1860	0	43560	
1861	0	44024	
1862	0	44320	
1863	0	44392	
1864	0	44256	
1865	0	43928	
1866	0	43472	
1867	0	42920	
1868	0	42304	
1869	0	41584	
1870	0	40800	
1871	0	39976	
1872	0	39148	
1873	0	38288	
1874	0	37432	
1875	0	36576	
1876	0	35832	
1877	0	35212	
1878	0	34736	
1879	0	34384	
1880	0	34104	
1881	0	33880	
1882	0	33704	
1883	0	33552	
1884	0	33416	
1885	0	33264	
1886	0	33128	
1887	0	32960	
1888	0	32792	
1889	0	32620	
1890	0	32440	
1891	0	32280	
1892	0	32136	
1893	0	32000	
1894	0	31872	
1895	0	31764	
1896	0	31680	
1897	0	31612	
1898	0	31560	
1899	0	31512	
1900	0	31468	
1901	0	31448	
1902	0	31424	
1903	0	31408	
1904	0	31400	
1905	0	31392	
1906	0	31364	
1907	0	31352	
1908	0	31368	
1909	0	31376	
1910	0	31396	
1911	0	31420	
1912	0	31428	
1913	0	31448	
1914	0	31460	
1915	0	31480	
1916	0	31480	
1917	0	31512	
1918	0	31528	
1919	0	31560	
1920	0	31572	
1921	0	31584	
1922	0	31608	
1923	0	31608	
1924	0	31624	
1925	0	31632	
1926	0	31648	
1927	0	31648	
1928	0	31664	
1929	0	31680	
1930	0	31692	
1931	0	31728	
1932	0	31740	
1933	0	31756	
1934	0	31800	
1935	0	31808	
1936	0	31824	
1937	0	31852	
1938	0	31852	
1939	0	31852	
1940	0	31840	
1941	0	31840	
1942	0	31856	
1943	0	31856	
1944	0	31864	
1945	0	31864	
1946	0	31868	
1947	0	31872	
1948	0	31856	
1949	0	31860	
1950	0	31880	
1951	0	31900	
1952	0	31900	
1953	0	31896	
1954	0	31904	
1955	0	31920	
1956	0	31936	
1957	0	31928	
1958	0	31956	
1959	0	31940	
1960	0	31944	
1961	0	31944	
1962	0	31940	
1963	0	31944	
1964	0	31944	
1965	0	31936	
1966	0	31924	
1967	0	31920	
1968	0	31936	
1969	0	31936	
1970	0	31944	
1971	0	31964	
1972	0	31984	
1973	0	32000	
1974	0	32024	
1975	0	32048	
1976	0	32076	
1977	0	32108	
1978	0	32144	
1979	0	32176	
1980	0	32200	
1981	0	32208	
1982	0	32208	
1983	0	32224	
1984	0	32226	
1985	0	32256	
1986	0	32280	
1987	0	32304	
1988	0	32336	
1989	0	32352	
1990	0	32396	
1991	0	32432	
1992	0	32456	
1993	0	32472	
1994	0	32504	
1995	0	32536	
1996	0	32560	
1997	0	32592	
1998	0	32616	
1999	0	32624	
2000	0	32632	
2001	0	32660	
2002	0	32664	
2003	0	32664	
2004	0	32648	
2005	0	32656	
2006	0	32672	
2007	0	32672	
2008	0	32700	
2009	0	32720	
2010	0	32736	
2011	0	32728	
2012	0	32712	
2013	0	32728	
2014	0	32744	
2015	0	32744	
2016	0	32744	
2017	0	32728	
2018	0	32728	
2019	0	32720	
2020	0	32696	
2021	0	32696	
2022	0	32684	
2023	0	32680	
2024	0	32668	
2025	0	32672	
2026	0	32656	
2027	0	32636	
2028	0	32624	
2029	0	32600	
2030	0	32576	
2031	0	32584	
2032	0	32576	
2033	0	32564	
2034	0	32560	
2035	0	32560	
2036	0	32568	
2037	0	32588	
2038	0	32588	
2039	0	32576	
2040	0	32560	
2041	0	32552	
2042	0	32552	
2043	0	32576	
2044	0	32568	
2045	0	32584	
2046	0	32600	
2047	0	32600	
2048	0	32608	
2049	0	32628	
2050	0	32624	
2051	0	32652	
2052	0	32656	
2053	0	32672	
2054	0	32672	
2055	0	32666	
2056	0	32664	
2057	0	32676	
2058	0	32680	
2059	0	32700	
2060	0	32704	
2061	0	32712	
2062	0	32696	
2063	0	32712	
2064	0	32696	
2065	0	32672	
2066	0	32688	
2067	0	32704	
2068	0	32712	
2069	0	32720	
2070	0	32724	
2071	0	32728	
2072	0	32720	
2073	0	32752	
2074	0	32768	
2075	0	32784	
2076	0	32800	
2077	0	32808	
2078	0	32824	
2079	0	32832	
2080	0	32832	
2081	0	32832	
2082	0	32848	
2083	0	32860	
2084	0	32864	
2085	0	32864	
2086	0	32888	
2087	0	32904	
2088	0	32904	
2089	0	32912	
2090	0	32928	
2091	0	32928	
2092	0	32940	
2093	0	32944	
2094	0	32940	
2095	0	32944	
2096	0	32936	
2097	0	32944	
2098	0	32936	
2099	0	32920	
2100	0	32912	
2101	0	32888	
2102	0	32864	
2103	0	32848	
2104	0	32836	
2105	0	32800	
2106	0	32796	
2107	0	32764	
2108	0	32744	
2109	0	32720	
2110	0	32696	
2111	0	32688	
2112	0	32656	
2113	0	32656	
2114	0	32632	
2115	0	32616	
2116	0	32608	
2117	0	32592	
2118	0	32592	
2119	0	32576	
2120	0	32544	
2121	0	32512	
2122	0	32488	
2123	0	32472	
2124	0	32460	
2125	0	32440	
2126	0	32440	
2127	0	32404	
2128	0	32392	
2129	0	32376	
2130	0	32364	
2131	0	32344	
2132	0	32320	
2133	0	32320	
2134	0	32306	
2135	0	32312	
2136	0	32320	
2137	0	32296	
2138	0	32296	
2139	0	32288	
2140	0	32248	
2141	0	32224	
2142	0	32200	
2143	0	32192	
2144	0	32176	
2145	0	32152	
2146	0	32136	
2147	0	32112	
2148	0	32088	
2149	0	32088	
2150	0	32064	
2151	0	32056	
2152	0	32044	
2153	0	32044	
2154	0	32048	
2155	0	32056	
2156	0	32032	
2157	0	32032	
2158	0	32016	
2159	0	32000	
2160	0	31984	
2161	0	31968	
2162	0	31968	
2163	0	31936	
2164	0	31928	
2165	0	31916	
2166	0	31904	
2167	0	31900	
2168	0	31912	
2169	0	31904	
2170	0	31904	
2171	0	31896	
2172	0	31888	
2173	0	31888	
2174	0	31880	
2175	0	31856	
2176	0	31880	
2177	0	31880	
2178	0	31888	
2179	0	31900	
2180	0	31920	
2181	0	31928	
2182	0	31928	
2183	0	31940	
2184	0	31952	
2185	0	31956	
2186	0	31980	
2187	0	31996	
2188	0	32016	
2189	0	32040	
2190	0	32064	
2191	0	32084	
2192	0	32136	
2193	0	32204	
2194	0	32236	
2195	0	32272	
2196	0	32296	
2197	0	32320	
2198	0	32324	
2199	0	32344	
2200	0	32364	
2201	0	32368	
2202	0	32400	
2203	0	32416	
2204	0	32436	
2205	0	32452	
2206	0	32472	
2207	0	32504	
2208	0	32536	
2209	0	32568	
2210	0	32592	
2211	0	32608	
2212	0	32640	
2213	0	32648	
2214	0	32684	
2215	0	32688	
2216	0	32704	
2217	0	32716	
2218	0	32720	
2219	0	32728	
2220	0	32732	
2221	0	32744	
2222	0	32764	
2223	0	32784	
2224	0	32808	
2225	0	32820	
2226	0	32832	
2227	0	32832	
2228	0	32824	
2229	0	32832	
2230	0	32856	
2231	0	32864	
2232	0	32864	
2233	0	32880	
2234	0	32888	
2235	0	32900	
2236	0	32912	
2237	0	32912	
2238	0	32920	
2239	0	32928	
2240	0	32936	
2241	0	32944	
2242	0	32944	
2243	0	32928	
2244	0	32940	
2245	0	32952	
2246	0	32932	
2247	0	32936	
2248	0	32972	
2249	0	32984	
2250	0	33008	
2251	0	33032	
2252	0	33032	
2253	0	33056	
2254	0	33072	
2255	0	33112	
2256	0	33116	
2257	0	33112	
2258	0	33112	
2259	0	33112	
2260	0	33120	
2261	0	33120	
2262	0	33096	
2263	0	33068	
2264	0	33056	
2265	0	33056	
2266	0	33056	
2267	0	33040	
2268	0	33048	
2269	0	33040	
2270	0	33040	
2271	0	33048	
2272	0	33080	
2273	0	33104	
2274	0	33128	
2275	0	33136	
2276	0	33136	
2277	0	33144	
2278	0	33168	
2279	0	33168	
2280	0	33176	
2281	0	33196	
2282	0	33228	
2283	0	33260	
2284	0	33280	
2285	0	33308	
2286	0	33336	
2287	0	33384	
2288	0	33432	
2289	0	33496	
2290	0	33524	
2291	0	33548	
2292	0	33584	
2293	0	33608	
2294	0	33624	
2295	0	33656	
2296	0	33672	
2297	0	33696	
2298	0	33704	
2299	0	33720	
2300	0	33744	
2301	0	33768	
2302	0	33800	
2303	0	33836	
2304	0	33880	
2305	0	33952	
2306	0	34016	
2307	0	34092	
2308	0	34176	
2309	0	34280	
2310	0	34400	
2311	0	34512	
2312	0	34624	
2313	0	34720	
2314	0	34808	
2315	0	34912	
2316	0	34988	
2317	0	35072	
2318	0	35168	
2319	0	35256	
2320	0	35344	
2321	0	35444	
2322	0	35504	
2323	0	35536	
2324	0	35552	
2325	0	35616	
2326	0	35688	
2327	0	35784	
2328	0	35880	
2329	0	35964	
2330	0	36024	
2331	0	36024	
2332	0	35992	
2333	0	35984	
2334	0	35976	
2335	0	35984	
2336	0	36000	
2337	0	36032	
2338	0	36040	
2339	0	36056	
2340	0	36072	
2341	0	36088	
2342	0	36104	
2343	0	36168	
2344	0	36232	
2345	0	36288	
2346	0	36352	
2347	0	36408	
2348	0	36456	
2349	0	36440	
2350	0	36416	
2351	0	36428	
2352	0	36512	
2353	0	36632	
2354	0	36744	
2355	0	36856	
2356	0	36936	
2357	0	36960	
2358	0	36984	
2359	0	37008	
2360	0	36888	
2361	0	36704	
2362	0	36544	
2363	0	36432	
2364	0	36384	
2365	0	36400	
2366	0	36416	
2367	0	36440	
2368	0	36508	
2369	0	36560	
2370	0	36616	
2371	0	36644	
2372	0	36672	
2373	0	36648	
2374	0	36616	
2375	0	36584	
2376	0	36576	
2377	0	36568	
2378	0	36544	
2379	0	36532	
2380	0	36520	
2381	0	36488	
2382	0	36424	
2383	0	36416	
2384	0	36416	
2385	0	36384	
2386	0	36392	
2387	0	36384	
2388	0	36416	
2389	0	36488	
2390	0	36576	
2391	0	36584	
2392	0	36564	
2393	0	36520	
2394	0	36496	
2395	0	36440	
2396	0	36360	
2397	0	36316	
2398	0	36248	
2399	0	36172	
2400	0	36064	
2401	0	35952	
2402	0	35828	
2403	0	35656	
2404	0	35384	
2405	0	35152	
2406	0	34952	
2407	0	34840	
2408	0	34800	
2409	0	34744	
2410	0	34712	
2411	0	34736	
2412	0	34760	
2413	0	34756	
2414	0	34712	
2415	0	34656	
2416	0	34576	
2417	0	34560	
2418	0	34584	
2419	0	34576	
2420	0	34536	
2421	0	34464	
2422	0	34416	
2423	0	34384	
2424	0	34272	
2425	0	34168	
2426	0	34088	
2427	0	34024	
2428	0	33952	
2429	0	33928	
2430	0	33920	
2431	0	33952	
2432	0	33964	
2433	0	33984	
2434	0	34020	
2435	0	34080	
2436	0	34156	
2437	0	34224	
2438	0	34312	
2439	0	34448	
2440	0	34640	
2441	0	34840	
2442	0	35096	
2443	0	35312	
2444	0	35464	
2445	0	35608	
2446	0	35784	
2447	0	35932	
2448	0	35968	
2449	0	35920	
2450	0	35848	
2451	0	35808	
2452	0	35800	
2453	0	35784	
2454	0	35760	
2455	0	35672	
2456	0	35528	
2457	0	35448	
2458	0	35340	
2459	0	35248	
2460	0	35136	
2461	0	35008	
2462	0	34856	
2463	0	34708	
2464	0	34568	
2465	0	34456	
2466	0	34344	
2467	0	34264	
2468	0	34176	
2469	0	34048	
2470	0	33856	
2471	0	33632	
2472	0	33420	
2473	0	33256	
2474	0	33116	
2475	0	33032	
2476	0	33012	
2477	0	33072	
2478	0	33164	
2479	0	33248	
2480	0	33304	
2481	0	33360	
2482	0	33448	
2483	0	33568	
2484	0	33712	
2485	0	33944	
2486	0	34256	
2487	0	34616	
2488	0	35028	
2489	0	35504	
2490	0	36064	
2491	0	36696	
2492	0	37424	
2493	0	38224	
2494	0	39024	
2495	0	39856	
2496	0	40720	
2497	0	41560	
2498	0	42376	
2499	0	43132	
2500	0	43852	
2501	0	44496	
2502	0	45080	
2503	0	45536	
2504	0	45824	
2505	0	45880	
2506	0	45728	
2507	0	45380	
2508	0	44848	
2509	0	44200	
2510	0	43464	
2511	0	42640	
2512	0	41736	
2513	0	40768	
2514	0	39752	
2515	0	38672	
2516	0	37576	
2517	0	36496	
2518	0	35520	
2519	0	34652	
2520	0	33900	
2521	0	33256	
2522	0	32728	
2523	0	32288	
2524	0	31912	
2525	0	31576	
2526	0	31260	
2527	0	30968	
2528	0	30676	
2529	0	30380	
2530	0	30104	
2531	0	29864	
2532	0	29632	
2533	0	29344	
2534	0	29024	
2535	0	28736	
2536	0	28456	
2537	0	28208	
2538	0	27968	
2539	0	27756	
2540	0	27560	
2541	0	27384	
2542	0	27200	
2543	0	27016	
2544	0	26880	
2545	0	26824	
2546	0	26752	
2547	0	26672	
2548	0	26552	
2549	0	26440	
2550	0	26332	
2551	0	26196	
2552	0	26072	
2553	0	25992	
2554	0	25900	
2555	0	25812	
2556	0	25704	
2557	0	25592	
2558	0	25476	
2559	0	25344	
2560	0	25176	
2561	0	25036	
2562	0	24880	
2563	0	24740	
2564	0	24600	
2565	0	24496	
2566	0	24392	
2567	0	24280	
2568	0	24160	
2569	0	24060	
2570	0	23952	
2571	0	23884	
2572	0	23812	
2573	0	23716	
2574	0	23616	
2575	0	23516	
2576	0	23416	
2577	0	23288	
2578	0	23160	
2579	0	23048	
2580	0	22912	
2581	0	22776	
2582	0	22656	
2583	0	22520	
2584	0	22368	
2585	0	22240	
2586	0	22080	
2587	0	21904	
2588	0	21768	
2589	0	21648	
2590	0	21530	
2591	0	21404	
2592	0	21288	
2593	0	21172	
2594	0	21056	
2595	0	20960	
2596	0	20868	
2597	0	20768	
2598	0	20660	
2599	0	20560	
2600	0	20456	
2601	0	20374	
2602	0	20288	
2603	0	20200	
2604	0	20116	
2605	0	20036	
2606	0	19952	
2607	0	19860	
2608	0	19776	
2609	0	19680	
2610	0	19600	
2611	0	19552	
2612	0	19488	
2613	0	19460	
2614	0	19400	
2615	0	19320	
2616	0	19252	
2617	0	19176	
2618	0	19092	
2619	0	19012	
2620	0	18920	
2621	0	18800	
2622	0	18668	
2623	0	18524	
2624	0	18400	
2625	0	18224	
2626	0	18056	
2627	0	17888	
2628	0	17744	
2629	0	17624	
2630	0	17472	
2631	0	17280	
2632	0	17058	
2633	0	16832	
2634	0	16590	
2635	0	16312	
2636	0	16040	
2637	0	15820	
2638	0	15592	
2639	0	15353	
2640	0	15148	
2641	0	14948	
2642	0	14780	
2643	0	14640	
2644	0	14494	
2645	0	14312	
2646	0	14108	
2647	0	13852	
2648	0	13564	
2649	0	13288	
2650	0	13024	
2651	0	12816	
2652	0	12608	
2653	0	12404	
2654	0	12184	
2655	0	12006	
2656	0	11872	
2657	0	11800	
2658	0	11764	
2659	0	11693	
2660	0	11612	
2661	0	11530	
2662	0	11428	
2663	0	11344	
2664	0	11249	
2665	0	11129	
2666	0	11032	
2667	0	10980	
2668	0	10988	
2669	0	11037	
2670	0	11125	
2671	0	11200	
2672	0	11328	
2673	0	11520	
2674	0	11704	
2675	0	11824	
2676	0	11902	
2677	0	12000	
2678	0	12088	
2679	0	12160	
2680	0	12212	
2681	0	12248	
2682	0	12296	
2683	0	12352	
2684	0	12412	
2685	0	12528	
2686	0	12676	
2687	0	12888	
2688	0	13180	
2689	0	13452	
2690	0	13696	
2691	0	13996	
2692	0	14360	
2693	0	14732	
2694	0	15064	
2695	0	15392	
2696	0	15745	
2697	0	16084	
2698	0	16401	
2699	0	16704	
2700	0	17016	
2701	0	17260	
2702	0	17600	
2703	0	17900	
2704	0	18104	
2705	0	18316	
2706	0	18568	
2707	0	18836	
2708	0	19092	
2709	0	19338	
2710	0	19604	
2711	0	19856	
2712	0	20108	
2713	0	20408	
2714	0	20684	
2715	0	20912	
2716	0	21136	
2717	0	21328	
2718	0	21472	
2719	0	21484	
2720	0	21576	
2721	0	21764	
2722	0	22060	
2723	0	22368	
2724	0	22612	
2725	0	22768	
2726	0	22844	
2727	0	22912	
2728	0	23000	
2729	0	23072	
2730	0	23104	
2731	0	23112	
2732	0	23092	
2733	0	23000	
2734	0	23036	
2735	0	23088	
2736	0	23248	
2737	0	23520	
2738	0	23812	
2739	0	24024	
2740	0	24220	
2741	0	24412	
2742	0	24640	
2743	0	24964	
2744	0	25312	
2745	0	25600	
2746	0	25852	
2747	0	26144	
2748	0	26464	
2749	0	26868	
2750	0	27216	
2751	0	27556	
2752	0	27728	
2753	0	27816	
2754	0	27872	
2755	0	27816	
2756	0	27816	
2757	0	27808	
2758	0	27640	
2759	0	27472	
2760	0	27424	
2761	0	27488	
2762	0	27712	
2763	0	28120	
2764	0	28600	
2765	0	28792	
2766	0	28524	
2767	0	27968	
2768	0	27464	
2769	0	27280	
2770	0	27280	
2771	0	27320	
2772	0	27336	
2773	0	27384	
2774	0	27512	
2775	0	27600	
2776	0	27776	
2777	0	27980	
2778	0	28176	
2779	0	28304	
2780	0	28312	
2781	0	28312	
2782	0	28372	
2783	0	28476	
2784	0	28520	
2785	0	28584	
2786	0	28620	
2787	0	28632	
2788	0	28672	
2789	0	28648	
2790	0	28596	
2791	0	28576	
2792	0	28512	
2793	0	28424	
2794	0	28396	
2795	0	28456	
2796	0	28592	
2797	0	28768	
2798	0	28976	
2799	0	29240	
2800	0	29480	
2801	0	29592	
2802	0	29632	
2803	0	29676	
2804	0	29700	
2805	0	29728	
2806	0	29752	
2807	0	29788	
2808	0	29856	
2809	0	29920	
2810	0	30008	
2811	0	30104	
2812	0	30220	
2813	0	30312	
2814	0	30448	
2815	0	30640	
2816	0	30800	
2817	0	31012	
2818	0	31240	
2819	0	31400	
2820	0	31552	
2821	0	31624	
2822	0	31600	
2823	0	31528	
2824	0	31460	
2825	0	31424	
2826	0	31416	
2827	0	31448	
2828	0	31512	
2829	0	31600	
2830	0	31688	
2831	0	31752	
2832	0	31852	
2833	0	32016	
2834	0	32232	
2835	0	32392	
2836	0	32480	
2837	0	32512	
2838	0	32544	
2839	0	32604	
2840	0	32680	
2841	0	32748	
2842	0	32732	
2843	0	32724	
2844	0	32840	
2845	0	33040	
2846	0	33216	
2847	0	33288	
2848	0	33368	
2849	0	33544	
2850	0	33760	
2851	0	33984	
2852	0	34240	
2853	0	34480	
2854	0	34664	
2855	0	34832	
2856	0	35052	
2857	0	35340	
2858	0	35664	
2859	0	36012	
2860	0	36336	
2861	0	36720	
2862	0	37208	
2863	0	37760	
2864	0	38320	
2865	0	38896	
2866	0	39544	
2867	0	40280	
2868	0	41024	
2869	0	41768	
2870	0	42504	
2871	0	43200	
2872	0	43912	
2873	0	44520	
2874	0	44984	
2875	0	45264	
2876	0	45416	
2877	0	45392	
2878	0	45200	
2879	0	44912	
2880	0	44520	
2881	0	44040	
2882	0	43384	
2883	0	42616	
2884	0	41896	
2885	0	41288	
2886	0	40784	
2887	0	40464	
2888	0	40304	
2889	0	40312	
2890	0	40528	
2891	0	40936	
2892	0	41544	
2893	0	42360	
2894	0	43408	
2895	0	44264	
2896	0	44728	
2897	0	44888	
2898	0	44872	
2899	0	44736	
2900	0	44496	
2901	0	44272	
2902	0	44060	
2903	0	43840	
2904	0	43528	
2905	0	43264	
2906	0	42968	
2907	0	42568	
2908	0	42248	
2909	0	42080	
2910	0	42112	
2911	0	42176	
2912	0	42288	
2913	0	42504	
2914	0	42848	
2915	0	43256	
2916	0	43776	
2917	0	44408	
2918	0	45224	
2919	0	46152	
2920	0	47208	
2921	0	48272	
2922	0	49128	
2923	0	49904	
2924	0	50584	
2925	0	51112	
2926	0	51592	
2927	0	51928	
2928	0	51932	
2929	0	51528	
2930	0	50880	
2931	0	50032	
2932	0	49104	
2933	0	48248	
2934	0	47544	
2935	0	46912	
2936	0	46376	
2937	0	45920	
2938	0	45536	
2939	0	45200	
2940	0	44848	
2941	0	44464	
2942	0	44072	
2943	0	43680	
2944	0	43312	
2945	0	42992	
2946	0	42640	
2947	0	42192	
2948	0	41656	
2949	0	41088	
2950	0	40520	
2951	0	39884	
2952	0	39064	
2953	0	38088	
2954	0	37008	
2955	0	35832	
2956	0	34496	
2957	0	33028	
2958	0	31352	
2959	0	29488	
2960	0	27496	
2961	0	25320	
2962	0	22904	
2963	0	20384	
2964	0	18072	
2965	0	16280	
2966	0	14976	
2967	0	14120	
2968	0	13624	
2969	0	13484	
2970	0	13760	
2971	0	14392	
2972	0	15344	
2973	0	16496	
2974	0	17660	
2975	0	18756	
2976	0	19784	
2977	0	20724	
2978	0	21616	
2979	0	22472	
2980	0	23192	
2981	0	23736	
2982	0	24156	
2983	0	24424	
2984	0	24604	
2985	0	24808	
2986	0	24968	
2987	0	25016	
2988	0	24944	
2989	0	24720	
2990	0	24396	
2991	0	24010	
2992	0	23696	
2993	0	23360	
2994	0	23036	
2995	0	22698	
2996	0	22408	
2997	0	22064	
2998	0	21656	
2999	0	21208	
3000	0	20752	
3001	0	20388	
3002	0	20108	
3003	0	19880	
3004	0	19628	
3005	0	19384	
3006	0	18980	
3007	0	18608	
3008	0	18392	
3009	0	18292	
3010	0	18296	
3011	0	18324	
3012	0	18404	
3013	0	18444	
3014	0	18532	
3015	0	18776	
3016	0	19000	
3017	0	19244	
3018	0	19618	
3019	0	20144	
3020	0	20692	
3021	0	21192	
3022	0	21612	
3023	0	22008	
3024	0	22316	
3025	0	22524	
3026	0	22664	
3027	0	22864	
3028	0	23112	
3029	0	23388	
3030	0	23648	
3031	0	23928	
3032	0	24236	
3033	0	24600	
3034	0	25016	
3035	0	25440	
3036	0	25944	
3037	0	26480	
3038	0	26960	
3039	0	27500	
3040	0	28096	
3041	0	28784	
3042	0	29516	
3043	0	30236	
3044	0	30916	
3045	0	31552	
3046	0	32096	
3047	0	32544	
3048	0	32952	
3049	0	33292	
3050	0	33632	
3051	0	33920	
3052	0	34188	
3053	0	34432	
3054	0	34680	
3055	0	34968	
3056	0	35272	
3057	0	35584	
3058	0	35852	
3059	0	36012	
3060	0	36136	
3061	0	36336	
3062	0	36584	
3063	0	36848	
3064	0	37120	
3065	0	37280	
3066	0	37440	
3067	0	37600	
3068	0	37840	
3069	0	38088	
3070	0	38336	
3071	0	38648	
3072	0	39020	
3073	0	39440	
3074	0	39856	
3075	0	40264	
3076	0	40672	
3077	0	41088	
3078	0	41512	
3079	0	41920	
3080	0	42344	
3081	0	42760	
3082	0	43136	
3083	0	43472	
3084	0	43848	
3085	0	44176	
3086	0	44456	
3087	0	44736	
3088	0	44968	
3089	0	45160	
3090	0	45376	
3091	0	45584	
3092	0	45744	
3093	0	45944	
3094	0	46120	
3095	0	46328	
3096	0	46496	
3097	0	46600	
3098	0	46688	
3099	0	46784	
3100	0	46864	
3101	0	46912	
3102	0	46968	
3103	0	47008	
3104	0	47024	
3105	0	46972	
3106	0	46960	
3107	0	46984	
3108	0	47048	
3109	0	47128	
3110	0	47200	
3111	0	47264	
3112	0	47340	
3113	0	47416	
3114	0	47424	
3115	0	47448	
3116	0	47392	
3117	0	47280	
3118	0	47160	
3119	0	47008	
3120	0	46824	
3121	0	46640	
3122	0	46432	
3123	0	46192	
3124	0	45920	
3125	0	45600	
3126	0	45296	
3127	0	45008	
3128	0	44736	
3129	0	44512	
3130	0	44328	
3131	0	44192	
3132	0	44080	
3133	0	43944	
3134	0	43824	
3135	0	43720	
3136	0	43616	
3137	0	43528	
3138	0	43496	
3139	0	43496	
3140	0	43552	
3141	0	43600	
3142	0	43720	
3143	0	43952	
3144	0	44256	
3145	0	44632	
3146	0	45112	
3147	0	45592	
3148	0	46096	
3149	0	46632	
3150	0	47176	
3151	0	47696	
3152	0	48232	
3153	0	48776	
3154	0	49360	
3155	0	49912	
3156	0	50344	
3157	0	50696	
3158	0	50936	
3159	0	51008	
3160	0	50912	
3161	0	50704	
3162	0	50424	
3163	0	50064	
3164	0	49640	
3165	0	49168	
3166	0	48656	
3167	0	48120	
3168	0	47552	
3169	0	46924	
3170	0	46272	
3171	0	45672	
3172	0	45168	
3173	0	44816	
3174	0	44552	
3175	0	44368	
3176	0	44256	
3177	0	44128	
3178	0	43992	
3179	0	43896	
3180	0	43800	
3181	0	43736	
3182	0	43688	
3183	0	43624	
3184	0	43584	
3185	0	43496	
3186	0	43416	
3187	0	43328	
3188	0	43160	
3189	0	42976	
3190	0	42800	
3191	0	42632	
3192	0	42488	
3193	0	42368	
3194	0	42232	
3195	0	42104	
3196	0	41952	
3197	0	41776	
3198	0	41628	
3199	0	41448	
3200	0	41280	
3201	0	41136	
3202	0	40976	
3203	0	40816	
3204	0	40672	
3205	0	40576	
3206	0	40520	
3207	0	40448	
3208	0	40396	
3209	0	40352	
3210	0	40336	
3211	0	40304	
3212	0	40312	
3213	0	40296	
3214	0	40268	
3215	0	40272	
3216	0	40288	
3217	0	40328	
3218	0	40352	
3219	0	40368	
3220	0	40376	
3221	0	40384	
3222	0	40448	
3223	0	40528	
3224	0	40600	
3225	0	40656	
3226	0	40728	
3227	0	40800	
3228	0	40848	
3229	0	40896	
3230	0	40936	
3231	0	41000	
3232	0	41072	
3233	0	41132	
3234	0	41232	
3235	0	41328	
3236	0	41440	
3237	0	41512	
3238	0	41592	
3239	0	41696	
3240	0	41800	
3241	0	41864	
3242	0	41920	
3243	0	41968	
3244	0	42024	
3245	0	42056	
3246	0	42064	
3247	0	42064	
3248	0	42032	
3249	0	41976	
3250	0	41880	
3251	0	41792	
3252	0	41720	
3253	0	41680	
3254	0	41656	
3255	0	41656	
3256	0	41624	
3257	0	41576	
3258	0	41528	
3259	0	41472	
3260	0	41400	
3261	0	41280	
3262	0	41192	
3263	0	41112	
3264	0	41036	
3265	0	40968	
3266	0	40928	
3267	0	40856	
3268	0	40760	
3269	0	40632	
3270	0	40512	
3271	0	40360	
3272	0	40248	
3273	0	40128	
3274	0	39992	
3275	0	39864	
3276	0	39720	
3277	0	39572	
3278	0	39456	
3279	0	39328	
3280	0	39212	
3281	0	39064	
3282	0	38944	
3283	0	38784	
3284	0	38688	
3285	0	38608	
3286	0	38560	
3287	0	38472	
3288	0	38384	
3289	0	38320	
3290	0	38296	
3291	0	38288	
3292	0	38272	
3293	0	38248	
3294	0	38208	
3295	0	38152	
3296	0	38128	
3297	0	38096	
3298	0	38112	
3299	0	38144	
3300	0	38216	
3301	0	38272	
3302	0	38328	
3303	0	38408	
3304	0	38440	
3305	0	38472	
3306	0	38496	
3307	0	38512	
3308	0	38568	
3309	0	38668	
3310	0	38728	
3311	0	38776	
3312	0	38824	
3313	0	38876	
3314	0	38944	
3315	0	38936	
3316	0	38912	
3317	0	38952	
3318	0	39032	
3319	0	39136	
3320	0	39216	
3321	0	39256	
3322	0	39264	
3323	0	39272	
3324	0	39276	
3325	0	39288	
3326	0	39264	
3327	0	39224	
3328	0	39152	
3329	0	39080	
3330	0	39016	
3331	0	38960	
3332	0	38888	
3333	0	38780	
3334	0	38656	
3335	0	38528	
3336	0	38432	
3337	0	38376	
3338	0	38320	
3339	0	38264	
3340	0	38200	
3341	0	38136	
3342	0	38056	
3343	0	37968	
3344	0	37832	
3345	0	37656	
3346	0	37488	
3347	0	37320	
3348	0	37160	
3349	0	37000	
3350	0	36816	
3351	0	36620	
3352	0	36440	
3353	0	36232	
3354	0	36048	
3355	0	35856	
3356	0	35632	
3357	0	35376	
3358	0	35084	
3359	0	34856	
3360	0	34640	
3361	0	34456	
3362	0	34288	
3363	0	34140	
3364	0	33952	
3365	0	33788	
3366	0	33648	
3367	0	33552	
3368	0	33480	
3369	0	33416	
3370	0	33344	
3371	0	33240	
3372	0	33152	
3373	0	33064	
3374	0	32976	
3375	0	32880	
3376	0	32768	
3377	0	32640	
3378	0	32432	
3379	0	32240	
3380	0	32032	
3381	0	31828	
3382	0	31624	
3383	0	31432	
3384	0	31276	
3385	0	31144	
3386	0	31012	
3387	0	30864	
3388	0	30760	
3389	0	30656	
3390	0	30536	
3391	0	30416	
3392	0	30280	
3393	0	30152	
3394	0	30048	
3395	0	29896	
3396	0	29720	
3397	0	29544	
3398	0	29388	
3399	0	29252	
3400	0	29104	
3401	0	28980	
3402	0	28864	
3403	0	28744	
3404	0	28624	
3405	0	28480	
3406	0	28328	
3407	0	28160	
3408	0	27992	
3409	0	27808	
3410	0	27648	
3411	0	27516	
3412	0	27348	
3413	0	27184	
3414	0	27024	
3415	0	26880	
3416	0	26764	
3417	0	26664	
3418	0	26546	
3419	0	26408	
3420	0	26300	
3421	0	26216	
3422	0	26128	
3423	0	26048	
3424	0	26002	
3425	0	25968	
3426	0	25930	
3427	0	25864	
3428	0	25800	
3429	0	25772	
3430	0	25744	
3431	0	25712	
3432	0	25704	
3433	0	25712	
3434	0	25704	
3435	0	25700	
3436	0	25704	
3437	0	25744	
3438	0	25780	
3439	0	25824	
3440	0	25856	
3441	0	25904	
3442	0	25976	
3443	0	26088	
3444	0	26224	
3445	0	26392	
3446	0	26512	
3447	0	26592	
3448	0	26688	
3449	0	26786	
3450	0	26900	
3451	0	27012	
3452	0	27136	
3453	0	27240	
3454	0	27344	
3455	0	27432	
3456	0	27564	
3457	0	27708	
3458	0	27880	
3459	0	28044	
3460	0	28208	
3461	0	28368	
3462	0	28536	
3463	0	28696	
3464	0	28864	
3465	0	29032	
3466	0	29184	
3467	0	29352	
3468	0	29472	
3469	0	29600	
3470	0	29712	
3471	0	29808	
3472	0	29920	
3473	0	30048	
3474	0	30168	
3475	0	30312	
3476	0	30440	
3477	0	30584	
3478	0	30728	
3479	0	30896	
3480	0	31026	
3481	0	31168	
3482	0	31288	
3483	0	31392	
3484	0	31520	
3485	0	31636	
3486	0	31776	
3487	0	31920	
3488	0	32016	
3489	0	32124	
3490	0	32200	
3491	0	32232	
3492	0	32248	
3493	0	32288	
3494	0	32328	
3495	0	32352	
3496	0	32408	
3497	0	32472	
3498	0	32568	
3499	0	32616	
3500	0	32628	
3501	0	32640	
3502	0	32616	
3503	0	32584	
3504	0	32560	
3505	0	32544	
3506	0	32540	
3507	0	32520	
3508	0	32504	
3509	0	32460	
3510	0	32416	
3511	0	32400	
3512	0	32396	
3513	0	32392	
3514	0	32360	
3515	0	32296	
3516	0	32240	
3517	0	32124	
3518	0	31992	
3519	0	31864	
3520	0	31748	
3521	0	31672	
3522	0	31604	
3523	0	31584	
3524	0	31544	
3525	0	31392	
3526	0	31200	
3527	0	31008	
3528	0	30788	
3529	0	30600	
3530	0	30456	
3531	0	30344	
3532	0	30304	
3533	0	30304	
3534	0	30312	
3535	0	30320	
3536	0	30268	
3537	0	30188	
3538	0	30144	
3539	0	30124	
3540	0	30144	
3541	0	30152	
3542	0	30168	
3543	0	30216	
3544	0	30250	
3545	0	30296	
3546	0	30344	
3547	0	30368	
3548	0	30352	
3549	0	30336	
3550	0	30360	
3551	0	30380	
3552	0	30372	
3553	0	30336	
3554	0	30312	
3555	0	30288	
3556	0	30304	
3557	0	30376	
3558	0	30504	
3559	0	30664	
3560	0	30844	
3561	0	30976	
3562	0	31088	
3563	0	31208	
3564	0	31304	
3565	0	31392	
3566	0	31500	
3567	0	31608	
3568	0	31724	
3569	0	31888	
3570	0	31920	
3571	0	31920	
3572	0	31936	
3573	0	31992	
3574	0	32084	
3575	0	32288	
3576	0	32536	
3577	0	32744	
3578	0	32936	
3579	0	33096	
3580	0	33220	
3581	0	33432	
3582	0	33760	
3583	0	34112	
3584	0	34424	
3585	0	34720	
3586	0	34968	
3587	0	35144	
3588	0	35280	
3589	0	35368	
3590	0	35424	
3591	0	35440	
3592	0	35408	
3593	0	35320	
3594	0	35184	
3595	0	35000	
3596	0	34648	
3597	0	34152	
3598	0	33748	
3599	0	33440	
3600	0	33248	
3601	0	33136	
3602	0	33112	
3603	0	33192	
3604	0	33368	
3605	0	33528	
3606	0	33680	
3607	0	33816	
3608	0	33920	
3609	0	34064	
3610	0	34140	
3611	0	34148	
3612	0	34160	
3613	0	34196	
3614	0	34232	
3615	0	34232	
3616	0	34220	
3617	0	34244	
3618	0	34248	
3619	0	34232	
3620	0	34200	
3621	0	34168	
3622	0	34136	
3623	0	34120	
3624	0	34140	
3625	0	34064	
3626	0	33912	
3627	0	33784	
3628	0	33648	
3629	0	33496	
3630	0	33312	
3631	0	33152	
3632	0	32960	
3633	0	32720	
3634	0	32496	
3635	0	32300	
3636	0	32120	
3637	0	31980	
3638	0	31808	
3639	0	31536	
3640	0	31176	
3641	0	30736	
3642	0	30368	
3643	0	29960	
3644	0	29456	
3645	0	28848	
3646	0	28200	
3647	0	27504	
3648	0	26816	
3649	0	26136	
3650	0	25408	
3651	0	24704	
3652	0	24032	
3653	0	23348	
3654	0	22728	
3655	0	22216	
3656	0	21752	
3657	0	21264	
3658	0	20808	
3659	0	20408	
3660	0	20044	
3661	0	19664	
3662	0	19228	
3663	0	18840	
3664	0	18620	
3665	0	18564	
3666	0	18584	
3667	0	18572	
3668	0	18472	
3669	0	18264	
3670	0	18112	
3671	0	17820	
3672	0	17496	
3673	0	16740	
3674	0	15920	
3675	0	15376	
3676	0	15212	
3677	0	15290	
3678	0	15500	
3679	0	15736	
3680	0	15976	
3681	0	16168	
3682	0	16256	
3683	0	16112	
3684	0	15292	
3685	0	14292	
3686	0	13264	
3687	0	12402	
3688	0	11752	
3689	0	11272	
3690	0	10954	
3691	0	10324	
3692	0	9600	
3693	0	9092	
3694	0	8828	
3695	0	8705	
3696	0	8644	
3697	0	8604	
3698	0	8652	
3699	0	8620	
3700	0	8644	
3701	0	8792	
3702	0	9128	
3703	0	9652	
3704	0	10330	
3705	0	11148	
3706	0	12024	
3707	0	12944	
3708	0	13948	
3709	0	15104	
3710	0	16416	
3711	0	17856	
3712	0	19392	
3713	0	21120	
3714	0	22964	
3715	0	24736	
3716	0	25976	
3717	0	26272	
3718	0	25556	
3719	0	23944	
3720	0	21764	
3721	0	19328	
3722	0	16824	
3723	0	14388	
3724	0	12036	
3725	0	9881	
3726	0	8005	
3727	0	6824	
3728	0	6208	
3729	0	5896	
3730	0	5760	
3731	0	5693	
3732	0	5699	
3733	0	5748	
3734	0	5804	
3735	0	5870	
3736	0	5940	
3737	0	6001	
3738	0	6077	
3739	0	6154	
3740	0	6234	
3741	0	6306	
3742	0	6380	
3743	0	6454	
3744	0	6541	
3745	0	6610	
3746	0	6674	
3747	0	6758	
3748	0	6832	
3749	0	6897	
3750	0	6989	
3751	0	7058	
3752	0	8490	
3753	0	9698	
3754	0	10760	
3755	0	11722	
3756	0	12636	
3757	0	13528	
3758	0	14448	
3759	0	15408	
3760	0	16356	
3761	0	17322	
3762	0	18256	
3763	0	19160	
3764	0	20100	
3765	0	21100	
3766	0	22116	
3767	0	23168	
3768	0	24204	
3769	0	25176	
3770	0	26088	
3771	0	26936	
3772	0	27680	
3773	0	28372	
3774	0	29120	
3775	0	29960	
3776	0	30932	
3777	0	32056	
3778	0	33312	
3779	0	34632	
3780	0	36080	
3781	0	37616	
3782	0	39288	
3783	0	41136	
3784	0	43168	
3785	0	45344	
3786	0	47672	
3787	0	50112	
3788	0	52552	
3789	0	54904	
3790	0	57200	
3791	0	59440	
3792	0	61784	
3793	0	64400	
3794	0	65535	
3795	0	65535	
3796	0	65535	
3797	0	65535	
3798	0	65535	
3799	0	65535	
3800	0	65535	
3801	0	65535	
3802	0	65535	
3803	0	65535	
3804	0	65535	
3805	0	65535	
3806	0	65535	
3807	0	65535	
3808	0	65535	
3809	0	65535	
3810	0	65535	
3811	0	65535	
3812	0	65535	
3813	0	65535	
3814	0	65535	
3815	0	65535	
3816	0	65535	
3817	0	65535	
3818	0	65535	
3819	0	65535	
3820	0	65535	
3821	0	65535	
3822	0	65535	
3823	0	62272	
3824	0	59544	
3825	0	57048	
3826	0	54848	
3827	0	52928	
3828	0	51248	
3829	0	49760	
3830	0	48456	
3831	0	47340	
3832	0	46400	
3833	0	45560	
3834	0	44832	
3835	0	44168	
3836	0	43576	
3837	0	43056	
3838	0	42584	
3839	0	42088	
3840	0	41592	
3841	0	41120	
3842	0	40684	
3843	0	40240	
3844	0	39872	
3845	0	39496	
3846	0	39144	
3847	0	38824	
3848	0	38560	
3849	0	38648	
3850	0	38552	
3851	0	38192	
3852	0	37672	
3853	0	37056	
3854	0	36400	
3855	0	35672	
3856	0	34896	
3857	0	34056	
3858	0	33216	
3859	0	32440	
3860	0	31688	
3861	0	30976	
3862	0	30376	
3863	0	29848	
3864	0	29320	
3865	0	28872	
3866	0	28480	
3867	0	28232	
3868	0	28064	
3869	0	27920	
3870	0	27804	
3871	0	27680	
3872	0	27560	
3873	0	27352	
3874	0	27128	
3875	0	26988	
3876	0	26904	
3877	0	26864	
3878	0	26876	
3879	0	26908	
3880	0	26920	
3881	0	26796	
3882	0	26444	
3883	0	25820	
3884	0	25076	
3885	0	24384	
3886	0	23832	
3887	0	23320	
3888	0	22968	
3889	0	22848	
3890	0	22792	
3891	0	22668	
3892	0	22544	
3893	0	22432	
3894	0	22424	
3895	0	22656	
3896	0	23304	
3897	0	23472	
3898	0	23400	
3899	0	23736	
3900	0	24180	
3901	0	24500	
3902	0	25032	
3903	0	25796	
3904	0	26508	
3905	0	27218	
3906	0	27912	
3907	0	28480	
3908	0	28904	
3909	0	29280	
3910	0	29384	
3911	0	29340	
3912	0	29344	
3913	0	29456	
3914	0	29632	
3915	0	29868	
3916	0	30208	
3917	0	30632	
3918	0	31040	
3919	0	31456	
3920	0	31880	
3921	0	32344	
3922	0	32856	
3923	0	33412	
3924	0	34008	
3925	0	34632	
3926	0	35240	
3927	0	35848	
3928	0	36472	
3929	0	37144	
3930	0	37792	
3931	0	38496	
3932	0	39240	
3933	0	40032	
3934	0	40880	
3935	0	41744	
3936	0	42652	
3937	0	43600	
3938	0	44616	
3939	0	45608	
3940	0	46664	
3941	0	47792	
3942	0	48832	
3943	0	49448	
3944	0	49736	
3945	0	49744	
3946	0	49600	
3947	0	49360	
3948	0	49088	
3949	0	48808	
3950	0	48588	
3951	0	48472	
3952	0	48360	
3953	0	48248	
3954	0	48152	
3955	0	48040	
3956	0	47992	
3957	0	47888	
3958	0	47784	
3959	0	47688	
3960	0	47552	
3961	0	47440	
3962	0	47384	
3963	0	47368	
3964	0	47320	
3965	0	47296	
3966	0	47272	
3967	0	47232	
3968	0	47168	
3969	0	47080	
3970	0	46944	
3971	0	46816	
3972	0	46712	
3973	0	46584	
3974	0	46408	
3975	0	46216	
3976	0	46008	
3977	0	45760	
3978	0	45528	
3979	0	45256	
3980	0	45000	
3981	0	44792	
3982	0	44576	
3983	0	44364	
3984	0	44144	
3985	0	44000	
3986	0	43904	
3987	0	43840	
3988	0	43816	
3989	0	43792	
3990	0	43720	
3991	0	43672	
3992	0	43592	
3993	0	43528	
3994	0	43496	
3995	0	43480	
3996	0	43480	
3997	0	43536	
3998	0	43584	
3999	0	43616	
4000	0	43664	
4001	0	43712	
4002	0	43720	
4003	0	43704	
4004	0	43696	
4005	0	43728	
4006	0	43800	
4007	0	43856	
4008	0	43920	
4009	0	43992	
4010	0	44016	
4011	0	44040	
4012	0	44056	
4013	0	44064	
4014	0	44088	
4015	0	44096	
4016	0	44080	
4017	0	44096	
4018	0	44120	
4019	0	44136	
4020	0	44104	
4021	0	44056	
4022	0	44064	
4023	0	44056	
4024	0	44016	
4025	0	43968	
4026	0	43896	
4027	0	43848	
4028	0	43792	
4029	0	43776	
4030	0	43784	
4031	0	43824	
4032	0	43896	
4033	0	43984	
4034	0	44096	
4035	0	44264	
4036	0	44480	
4037	0	44736	
4038	0	45032	
4039	0	45352	
4040	0	45640	
4041	0	45856	
4042	0	46056	
4043	0	46224	
4044	0	46392	
4045	0	46496	
4046	0	46568	
4047	0	46632	
4048	0	46688	
4049	0	46736	
4050	0	46728	
4051	0	46712	
4052	0	46616	
4053	0	46496	
4054	0	46304	
4055	0	46056	
4056	0	45800	
4057	0	45496	
4058	0	45160	
4059	0	44800	
4060	0	44432	
4061	0	44064	
4062	0	43664	
4063	0	43264	
4064	0	42924	
4065	0	42600	
4066	0	42272	
4067	0	41952	
4068	0	41656	
4069	0	41376	
4070	0	41096	
4071	0	40856	
4072	0	40576	
4073	0	40300	
4074	0	40024	
4075	0	39800	
4076	0	39568	
4077	0	39400	
4078	0	39292	
4079	0	39248	
4080	0	39248	
4081	0	39304	
4082	0	39352	
4083	0	39400	
4084	0	39480	
4085	0	39624	
4086	0	39800	
4087	0	40000	
4088	0	40232	
4089	0	40496	
4090	0	40824	
4091	0	41152	
4092	0	41456	
4093	0	41728	
4094	0	41952	
4095	0	42200	
4096	0	42416	
4097	0	42584	
4098	0	42712	
4099	0	42760	
4100	0	42784	
4101	0	42736	
4102	0	42712	
4103	0	42656	
4104	0	42592	
4105	0	42504	
4106	0	42416	
4107	0	42304	
4108	0	42000	
4109	0	41560	
4110	0	41048	
4111	0	40464	
4112	0	39836	
4113	0	39208	
4114	0	38620	
4115	0	38080	
4116	0	37536	
4117	0	37020	
4118	0	36528	
4119	0	36064	
4120	0	35632	
4121	0	35200	
4122	0	34784	
4123	0	34400	
4124	0	34048	
4125	0	33680	
4126	0	33320	
4127	0	32984	
4128	0	32656	
4129	0	32328	
4130	0	32004	
4131	0	31680	
4132	0	31376	
4133	0	31084	
4134	0	30800	
4135	0	30528	
4136	0	30264	
4137	0	30024	
4138	0	29828	
4139	0	29704	
4140	0	29604	
4141	0	29552	
4142	0	29456	
4143	0	29304	
4144	0	29080	
4145	0	28760	
4146	0	28332	
4147	0	27752	
4148	0	27032	
4149	0	26266	
4150	0	25548	
4151	0	24824	
4152	0	24144	
4153	0	23552	
4154	0	23044	
4155	0	22584	
4156	0	22216	
4157	0	21952	
4158	0	21724	
4159	0	21472	
4160	0	21228	
4161	0	20980	
4162	0	20752	
4163	0	20484	
4164	0	20216	
4165	0	19976	
4166	0	19760	
4167	0	19512	
4168	0	19232	
4169	0	18936	
4170	0	18656	
4171	0	18352	
4172	0	18040	
4173	0	17724	
4174	0	17544	
4175	0	17440	
4176	0	17316	
4177	0	17150	
4178	0	16852	
4179	0	16436	
4180	0	16044	
4181	0	15716	
4182	0	15470	
4183	0	15264	
4184	0	15137	
4185	0	15085	
4186	0	15136	
4187	0	15272	
4188	0	15424	
4189	0	15568	
4190	0	15728	
4191	0	15912	
4192	0	16024	
4193	0	16008	
4194	0	15922	
4195	0	15788	
4196	0	15624	
4197	0	15472	
4198	0	15348	
4199	0	15328	
4200	0	15380	
4201	0	15456	
4202	0	15584	
4203	0	15752	
4204	0	15972	
4205	0	16280	
4206	0	16700	
4207	0	17097	
4208	0	17432	
4209	0	17724	
4210	0	17992	
4211	0	18240	
4212	0	18490	
4213	0	18744	
4214	0	19000	
4215	0	19240	
4216	0	19496	
4217	0	19776	
4218	0	20152	
4219	0	20608	
4220	0	21096	
4221	0	21620	
4222	0	22396	
4223	0	23580	
4224	0	24170	
4225	0	24544	
4226	0	24916	
4227	0	25364	
4228	0	26056	
4229	0	26872	
4230	0	27688	
4231	0	28368	
4232	0	28888	
4233	0	29288	
4234	0	29640	
4235	0	29948	
4236	0	30232	
4237	0	30548	
4238	0	30912	
4239	0	31300	
4240	0	31724	
4241	0	32148	
4242	0	32608	
4243	0	33024	
4244	0	33436	
4245	0	33856	
4246	0	34252	
4247	0	34664	
4248	0	35104	
4249	0	35512	
4250	0	35876	
4251	0	36168	
4252	0	36432	
4253	0	36664	
4254	0	36816	
4255	0	36928	
4256	0	37040	
4257	0	37088	
4258	0	37112	
4259	0	37112	
4260	0	37144	
4261	0	37228	
4262	0	37224	
4263	0	37208	
4264	0	37160	
4265	0	37088	
4266	0	36992	
4267	0	36860	
4268	0	36680	
4269	0	36504	
4270	0	36280	
4271	0	36040	
4272	0	35824	
4273	0	35664	
4274	0	35520	
4275	0	35456	
4276	0	35448	
4277	0	35480	
4278	0	35536	
4279	0	35660	
4280	0	35788	
4281	0	35896	
4282	0	35960	
4283	0	35996	
4284	0	35960	
4285	0	35920	
4286	0	35864	
4287	0	35824	
4288	0	35800	
4289	0	35808	
4290	0	35832	
4291	0	35840	
4292	0	35824	
4293	0	35808	
4294	0	35816	
4295	0	35804	
4296	0	35788	
4297	0	35752	
4298	0	35692	
4299	0	35648	
4300	0	35600	
4301	0	35576	
4302	0	35584	
4303	0	35592	
4304	0	35592	
4305	0	35568	
4306	0	35604	
4307	0	35656	
4308	0	35736	
4309	0	35840	
4310	0	35976	
4311	0	36128	
4312	0	36288	
4313	0	36488	
4314	0	36672	
4315	0	36816	
4316	0	36964	
4317	0	37160	
4318	0	37328	
4319	0	37548	
4320	0	37808	
4321	0	38120	
4322	0	38472	
4323	0	38840	
4324	0	39240	
4325	0	39628	
4326	0	39984	
4327	0	40352	
4328	0	40716	
4329	0	41080	
4330	0	41488	
4331	0	41872	
4332	0	42256	
4333	0	42616	
4334	0	42952	
4335	0	43232	
4336	0	43520	
4337	0	43808	
4338	0	44072	
4339	0	44304	
4340	0	44536	
4341	0	44792	
4342	0	45064	
4343	0	45288	
4344	0	45504	
4345	0	45632	
4346	0	45744	
4347	0	45888	
4348	0	46008	
4349	0	46112	
4350	0	46216	
4351	0	46352	
4352	0	46584	
4353	0	46888	
4354	0	47240	
4355	0	47616	
4356	0	48000	
4357	0	48368	
4358	0	48732	
4359	0	49072	
4360	0	49240	
4361	0	49272	
4362	0	49216	
4363	0	49104	
4364	0	48960	
4365	0	48824	
4366	0	48672	
4367	0	48472	
4368	0	48296	
4369	0	48176	
4370	0	48120	
4371	0	48064	
4372	0	48032	
4373	0	48056	
4374	0	48104	
4375	0	48224	
4376	0	48344	
4377	0	48504	
4378	0	48664	
4379	0	48824	
4380	0	49000	
4381	0	49240	
4382	0	49480	
4383	0	49736	
4384	0	50000	
4385	0	50280	
4386	0	50584	
4387	0	50896	
4388	0	51216	
4389	0	51576	
4390	0	51976	
4391	0	52496	
4392	0	53096	
4393	0	53752	
4394	0	54432	
4395	0	55136	
4396	0	55856	
4397	0	56432	
4398	0	56776	
4399	0	56952	
4400	0	57040	
4401	0	57000	
4402	0	56832	
4403	0	56584	
4404	0	56312	
4405	0	55960	
4406	0	55568	
4407	0	55192	
4408	0	54936	
4409	0	54856	
4410	0	55008	
4411	0	55336	
4412	0	55744	
4413	0	56176	
4414	0	56528	
4415	0	56824	
4416	0	57016	
4417	0	57128	
4418	0	57256	
4419	0	57400	
4420	0	57600	
4421	0	57864	
4422	0	58176	
4423	0	58488	
4424	0	58848	
4425	0	59200	
4426	0	59456	
4427	0	59672	
4428	0	59808	
4429	0	59872	
4430	0	59872	
4431	0	59816	
4432	0	59768	
4433	0	59712	
4434	0	59648	
4435	0	59584	
4436	0	59496	
4437	0	59424	
4438	0	59352	
4439	0	59272	
4440	0	59208	
4441	0	59136	
4442	0	59072	
4443	0	58984	
4444	0	58920	
4445	0	58832	
4446	0	58760	
4447	0	58672	
4448	0	58608	
4449	0	58528	
4450	0	58456	
4451	0	58400	
4452	0	58304	
4453	0	58248	
4454	0	58176	
4455	0	58104	
4456	0	58032	
4457	0	57952	
4458	0	57192	
4459	0	55536	
4460	0	54152	
4461	0	52908	
4462	0	51760	
4463	0	50728	
4464	0	49752	
4465	0	48832	
4466	0	47976	
4467	0	46992	
4468	0	46016	
4469	0	45128	
4470	0	44320	
4471	0	43608	
4472	0	42880	
4473	0	42136	
4474	0	41472	
4475	0	40824	
4476	0	40248	
4477	0	39712	
4478	0	39264	
4479	0	38896	
4480	0	38552	
4481	0	38216	
4482	0	37944	
4483	0	37640	
4484	0	37352	
4485	0	37064	
4486	0	36784	
4487	0	36488	
4488	0	36192	
4489	0	35904	
4490	0	35568	
4491	0	35232	
4492	0	34912	
4493	0	34624	
4494	0	34360	
4495	0	34116	
4496	0	33904	
4497	0	33720	
4498	0	33496	
4499	0	33248	
4500	0	32896	
4501	0	32408	
4502	0	31792	
4503	0	31048	
4504	0	30184	
4505	0	29216	
4506	0	28228	
4507	0	27236	
4508	0	26272	
4509	0	25384	
4510	0	24584	
4511	0	23860	
4512	0	23220	
4513	0	22652	
4514	0	22144	
4515	0	21688	
4516	0	21288	
4517	0	20904	
4518	0	20520	
4519	0	20128	
4520	0	19768	
4521	0	19448	
4522	0	19220	
4523	0	19024	
4524	0	18796	
4525	0	18540	
4526	0	18257	
4527	0	17996	
4528	0	17786	
4529	0	17616	
4530	0	17504	
4531	0	17352	
4532	0	17180	
4533	0	17024	
4534	0	16876	
4535	0	16761	
4536	0	16652	
4537	0	16556	
4538	0	16468	
4539	0	16392	
4540	0	16368	
4541	0	16394	
4542	0	16434	
4543	0	16514	
4544	0	16704	
4545	0	16932	
4546	0	17184	
4547	0	17448	
4548	0	17724	
4549	0	17984	
4550	0	18240	
4551	0	18496	
4552	0	18716	
4553	0	18932	
4554	0	19080	
4555	0	19204	
4556	0	19344	
4557	0	19504	
4558	0	19696	
4559	0	19936	
4560	0	20172	
4561	0	20424	
4562	0	20644	
4563	0	20840	
4564	0	21004	
4565	0	21101	
4566	0	21176	
4567	0	21226	
4568	0	21328	
4569	0	21436	
4570	0	21594	
4571	0	21752	
4572	0	21896	
4573	0	22016	
4574	0	22148	
4575	0	22304	
4576	0	22496	
4577	0	22588	
4578	0	22636	
4579	0	22722	
4580	0	22800	
4581	0	22896	
4582	0	22980	
4583	0	23008	
4584	0	23036	
4585	0	23080	
4586	0	23128	
4587	0	23256	
4588	0	23492	
4589	0	23700	
4590	0	23820	
4591	0	24000	
4592	0	24188	
4593	0	24300	
4594	0	24332	
4595	0	24376	
4596	0	24440	
4597	0	24488	
4598	0	24512	
4599	0	24504	
4600	0	24424	
4601	0	24336	
4602	0	24248	
4603	0	24120	
4604	0	23976	
4605	0	23836	
4606	0	23640	
4607	0	23468	
4608	0	23328	
4609	0	23200	
4610	0	23072	
4611	0	22920	
4612	0	22684	
4613	0	22380	
4614	0	22012	
4615	0	21616	
4616	0	21188	
4617	0	20728	
4618	0	20216	
4619	0	19708	
4620	0	19232	
4621	0	18776	
4622	0	18320	
4623	0	17892	
4624	0	17472	
4625	0	17032	
4626	0	16552	
4627	0	16064	
4628	0	15560	
4629	0	15092	
4630	0	14676	
4631	0	14300	
4632	0	13920	
4633	0	13592	
4634	0	13304	
4635	0	13060	
4636	0	12876	
4637	0	12736	
4638	0	12646	
4639	0	12574	
4640	0	12466	
4641	0	12296	
4642	0	12122	
4643	0	11960	
4644	0	11832	
4645	0	11748	
4646	0	11661	
4647	0	11650	
4648	0	11669	
4649	0	11696	
4650	0	11764	
4651	0	11812	
4652	0	11900	
4653	0	12020	
4654	0	12148	
4655	0	12278	
4656	0	12384	
4657	0	12404	
4658	0	12326	
4659	0	12122	
4660	0	11754	
4661	0	11290	
4662	0	10764	
4663	0	10220	
4664	0	9697	
4665	0	9188	
4666	0	8684	
4667	0	8184	
4668	0	7748	
4669	0	7368	
4670	0	7064	
4671	0	6806	
4672	0	6570	
4673	0	6342	
4674	0	6130	
4675	0	5941	
4676	0	5742	
4677	0	5512	
4678	0	5280	
4679	0	5022	
4680	0	4724	
4681	0	4361	
4682	0	4013	
4683	0	3605	
4684	0	3232	
4685	0	2910	
4686	0	2660	
4687	0	2452	
4688	0	2286	
4689	0	2210	
4690	0	2179	
4691	0	2233	
4692	0	2380	
4693	0	2599	
4694	0	2852	
4695	0	3136	
4696	0	3477	
4697	0	3832	
4698	0	4225	
4699	0	4648	
4700	0	5097	
4701	0	5576	
4702	0	6101	
4703	0	6660	
4704	0	7274	
4705	0	7890	
4706	0	8508	
4707	0	9120	
4708	0	9716	
4709	0	10336	
4710	0	10958	
4711	0	11552	
4712	0	12146	
4713	0	12720	
4714	0	13268	
4715	0	13776	
4716	0	14300	
4717	0	14800	
4718	0	15288	
4719	0	15738	
4720	0	16168	
4721	0	16588	
4722	0	17012	
4723	0	17420	
4724	0	17796	
4725	0	18176	
4726	0	18480	
4727	0	18728	
4728	0	18944	
4729	0	19112	
4730	0	19216	
4731	0	19248	
4732	0	19232	
4733	0	19192	
4734	0	19136	
4735	0	19064	
4736	0	18984	
4737	0	18866	
4738	0	18752	
4739	0	18632	
4740	0	18512	
4741	0	18432	
4742	0	18376	
4743	0	18396	
4744	0	18484	
4745	0	18692	
4746	0	18986	
4747	0	19312	
4748	0	19628	
4749	0	19936	
4750	0	20160	
4751	0	20336	
4752	0	20460	
4753	0	20544	
4754	0	20553	
4755	0	20588	
4756	0	20644	
4757	0	20740	
4758	0	20824	
4759	0	20904	
4760	0	20912	
4761	0	20880	
4762	0	20792	
4763	0	20696	
4764	0	20632	
4765	0	20656	
4766	0	20804	
4767	0	21076	
4768	0	21448	
4769	0	21888	
4770	0	22320	
4771	0	22656	
4772	0	22912	
4773	0	23080	
4774	0	23148	
4775	0	23144	
4776	0	23128	
4777	0	23120	
4778	0	23184	
4779	0	23360	
4780	0	23632	
4781	0	23984	
4782	0	24376	
4783	0	24800	
4784	0	25232	
4785	0	25628	
4786	0	25964	
4787	0	26208	
4788	0	26392	
4789	0	26512	
4790	0	26600	
4791	0	26668	
4792	0	26744	
4793	0	26836	
4794	0	26964	
4795	0	27072	
4796	0	27184	
4797	0	27296	
4798	0	27396	
4799	0	27496	
4800	0	27600	
4801	0	27688	
4802	0	27768	
4803	0	27824	
4804	0	27832	
4805	0	27800	
4806	0	27768	
4807	0	27768	
4808	0	27848	
4809	0	28008	
4810	0	28256	
4811	0	28580	
4812	0	28936	
4813	0	29312	
4814	0	29640	
4815	0	29888	
4816	0	29968	
4817	0	29916	
4818	0	29764	
4819	0	29536	
4820	0	29296	
4821	0	29032	
4822	0	28784	
4823	0	28556	
4824	0	28344	
4825	0	28184	
4826	0	28024	
4827	0	27864	
4828	0	27736	
4829	0	27632	
4830	0	27540	
4831	0	27464	
4832	0	27408	
4833	0	27348	
4834	0	27272	
4835	0	27200	
4836	0	27120	
4837	0	27072	
4838	0	26964	
4839	0	26856	
4840	0	26728	
4841	0	26592	
4842	0	26456	
4843	0	26300	
4844	0	26108	
4845	0	25884	
4846	0	25688	
4847	0	25476	
4848	0	25232	
4849	0	24968	
4850	0	24736	
4851	0	24520	
4852	0	24328	
4853	0	24168	
4854	0	24028	
4855	0	23932	
4856	0	23896	
4857	0	23890	
4858	0	23908	
4859	0	23972	
4860	0	24032	
4861	0	24120	
4862	0	24208	
4863	0	24320	
4864	0	24460	
4865	0	24592	
4866	0	24720	
4867	0	24804	
4868	0	24856	
4869	0	24876	
4870	0	24896	
4871	0	24944	
4872	0	25000	
4873	0	25074	
4874	0	25172	
4875	0	25260	
4876	0	25344	
4877	0	25496	
4878	0	25672	
4879	0	25876	
4880	0	26108	
4881	0	26336	
4882	0	26560	
4883	0	26768	
4884	0	26954	
4885	0	27096	
4886	0	27232	
4887	0	27392	
4888	0	27564	
4889	0	27744	
4890	0	27896	
4891	0	28012	
4892	0	28104	
4893	0	28192	
4894	0	28296	
4895	0	28408	
4896	0	28552	
4897	0	28696	
4898	0	28852	
4899	0	29008	
4900	0	29168	
4901	0	29352	
4902	0	29560	
4903	0	29728	
4904	0	29880	
4905	0	30016	
4906	0	30128	
4907	0	30240	
4908	0	30352	
4909	0	30464	
4910	0	30560	
4911	0	30648	
4912	0	30728	
4913	0	30800	
4914	0	30872	
4915	0	30944	
4916	0	31044	
4917	0	31160	
4918	0	31248	
4919	0	31356	
4920	0	31498	
4921	0	31632	
4922	0	31808	
4923	0	31952	
4924	0	32072	
4925	0	32192	
4926	0	32280	
4927	0	32336	
4928	0	32400	
4929	0	32456	
4930	0	32464	
4931	0	32448	
4932	0	32432	
4933	0	32432	
4934	0	32480	
4935	0	32576	
4936	0	32704	
4937	0	32816	
4938	0	32848	
4939	0	32800	
4940	0	32736	
4941	0	32672	
4942	0	32616	
4943	0	32632	
4944	0	32696	
4945	0	32768	
4946	0	32856	
4947	0	32936	
4948	0	32976	
4949	0	33000	
4950	0	32984	
4951	0	32928	
4952	0	32832	
4953	0	32764	
4954	0	32728	
4955	0	32672	
4956	0	32744	
4957	0	33016	
4958	0	33132	
4959	0	33200	
4960	0	33232	
4961	0	33200	
4962	0	33160	
4963	0	33088	
4964	0	32984	
4965	0	32872	
4966	0	32760	
4967	0	32648	
4968	0	32536	
4969	0	32424	
4970	0	32328	
4971	0	32264	
4972	0	32200	
4973	0	32152	
4974	0	32124	
4975	0	32092	
4976	0	32056	
4977	0	32048	
4978	0	32032	
4979	0	31944	
4980	0	31808	
4981	0	31552	
4982	0	31232	
4983	0	30960	
4984	0	30768	
4985	0	30644	
4986	0	30544	
4987	0	30472	
4988	0	30448	
4989	0	30444	
4990	0	30504	
4991	0	30588	
4992	0	30680	
4993	0	30752	
4994	0	30820	
4995	0	30920	
4996	0	31016	
4997	0	31120	
4998	0	31232	
4999	0	31368	
5000	0	31488	
5001	0	31584	
5002	0	31648	
5003	0	31712	
5004	0	31720	
5005	0	31708	
5006	0	31640	
5007	0	31512	
5008	0	31392	
5009	0	31272	
5010	0	31216	
5011	0	31176	
5012	0	31104	
5013	0	31004	
5014	0	30900	
5015	0	30784	
5016	0	30648	
5017	0	30520	
5018	0	30328	
5019	0	30096	
5020	0	29824	
5021	0	29520	
5022	0	29208	
5023	0	28892	
5024	0	28600	
5025	0	28292	
5026	0	28008	
5027	0	27712	
5028	0	27440	
5029	0	27208	
5030	0	26992	
5031	0	26844	
5032	0	26704	
5033	0	26580	
5034	0	26488	
5035	0	26400	
5036	0	26312	
5037	0	26236	
5038	0	26232	
5039	0	26252	
5040	0	26344	
5041	0	26464	
5042	0	26636	
5043	0	26832	
5044	0	27020	
5045	0	27184	
5046	0	27304	
5047	0	27376	
5048	0	27416	
5049	0	27476	
5050	0	27632	
5051	0	27880	
5052	0	28184	
5053	0	28512	
5054	0	28824	
5055	0	29144	
5056	0	29504	
5057	0	29904	
5058	0	30408	
5059	0	30928	
5060	0	31556	
5061	0	32240	
5062	0	32928	
5063	0	33680	
5064	0	34488	
5065	0	35308	
5066	0	36096	
5067	0	36832	
5068	0	37448	
5069	0	37960	
5070	0	38304	
5071	0	38480	
5072	0	38416	
5073	0	38200	
5074	0	37824	
5075	0	37272	
5076	0	36472	
5077	0	35552	
5078	0	34652	
5079	0	33808	
5080	0	33072	
5081	0	32408	
5082	0	31768	
5083	0	31164	
5084	0	30664	
5085	0	30288	
5086	0	30056	
5087	0	29932	
5088	0	29840	
5089	0	29778	
5090	0	29660	
5091	0	29528	
5092	0	29408	
5093	0	29304	
5094	0	29232	
5095	0	29192	
5096	0	29176	
5097	0	29056	
5098	0	28880	
5099	0	28660	
5100	0	28392	
5101	0	28112	
5102	0	27896	
5103	0	27740	
5104	0	27644	
5105	0	27544	
5106	0	27500	
5107	0	27484	
5108	0	27448	
5109	0	27312	
5110	0	27156	
5111	0	27004	
5112	0	26852	
5113	0	26656	
5114	0	26472	
5115	0	26296	
5116	0	26120	
5117	0	25928	
5118	0	25712	
5119	0	25544	
5120	0	25464	
5121	0	25424	
5122	0	25416	
5123	0	25432	
5124	0	25540	
5125	0	25824	
5126	0	26312	
5127	0	27008	
5128	0	27616	
5129	0	27992	
5130	0	28140	
5131	0	28196	
5132	0	28264	
5133	0	28440	
5134	0	28624	
5135	0	28760	
5136	0	28816	
5137	0	28792	
5138	0	28744	
5139	0	28688	
5140	0	28680	
5141	0	28664	
5142	0	28588	
5143	0	28512	
5144	0	28388	
5145	0	28296	
5146	0	28272	
5147	0	28296	
5148	0	28400	
5149	0	28544	
5150	0	28680	
5151	0	28768	
5152	0	28824	
5153	0	28944	
5154	0	29048	
5155	0	29116	
5156	0	29104	
5157	0	29024	
5158	0	29008	
5159	0	29088	
5160	0	29216	
5161	0	29304	
5162	0	29408	
5163	0	29516	
5164	0	29640	
5165	0	29736	
5166	0	29832	
5167	0	29876	
5168	0	29856	
5169	0	29816	
5170	0	29804	
5171	0	29752	
5172	0	29668	
5173	0	29680	
5174	0	29840	
5175	0	30112	
5176	0	30416	
5177	0	30688	
5178	0	30960	
5179	0	31200	
5180	0	31440	
5181	0	31584	
5182	0	31688	
5183	0	31824	
5184	0	31976	
5185	0	32120	
5186	0	32288	
5187	0	32472	
5188	0	32512	
5189	0	32552	
5190	0	32672	
5191	0	32888	
5192	0	33216	
5193	0	33584	
5194	0	33976	
5195	0	34328	
5196	0	34632	
5197	0	34944	
5198	0	35176	
5199	0	35376	
5200	0	35536	
5201	0	35680	
5202	0	35840	
5203	0	35896	
5204	0	35840	
5205	0	35744	
5206	0	35640	
5207	0	35448	
5208	0	35256	
5209	0	35104	
5210	0	35048	
5211	0	35072	
5212	0	35184	
5213	0	35300	
5214	0	35432	
5215	0	35680	
5216	0	36016	
5217	0	36384	
5218	0	36768	
5219	0	37104	
5220	0	37352	
5221	0	37536	
5222	0	37760	
5223	0	37960	
5224	0	38160	
5225	0	38432	
5226	0	38760	
5227	0	39384	
5228	0	40280	
5229	0	41208	
5230	0	42192	
5231	0	43320	
5232	0	44440	
5233	0	45632	
5234	0	46976	
5235	0	48672	
5236	0	51016	
5237	0	54264	
5238	0	58752	
5239	0	63520	
5240	0	65535	
5241	0	65535	
5242	0	65535	
5243	0	65535	
5244	0	65535	
5245	0	65535	
5246	0	65535	
5247	0	65535	
5248	0	65535	
5249	0	65535	
5250	0	65535	
5251	0	65535	
5252	0	65535	
5253	0	65535	
5254	0	65120	
5255	0	64688	
5256	0	64352	
5257	0	64096	
5258	0	64168	
5259	0	64464	
5260	0	64712	
5261	0	64848	
5262	0	64896	
5263	0	64608	
5264	0	64480	
5265	0	64608	
5266	0	65168	
5267	0	65535	
5268	0	65535	
5269	0	65535	
5270	0	65535	
5271	0	65535	
5272	0	65535	
5273	0	65535	
5274	0	65535	
5275	0	65535	
5276	0	65535	
5277	0	65535	
5278	0	65535	
5279	0	65535	
5280	0	65535	
5281	0	65535	
5282	0	65535	
5283	0	65535	
5284	0	65535	
5285	0	65535	
5286	0	65112	
5287	0	64584	
5288	0	64440	
5289	0	64504	
5290	0	64504	
5291	0	64488	
5292	0	64472	
5293	0	64424	
5294	0	64376	
5295	0	64104	
5296	0	63776	
5297	0	63416	
5298	0	62920	
5299	0	62472	
5300	0	62232	
5301	0	62088	
5302	0	62056	
5303	0	62080	
5304	0	62200	
5305	0	62600	
5306	0	63360	
5307	0	64120	
5308	0	64848	
5309	0	65472	
5310	0	65535	
5311	0	65535	
5312	0	65535	
5313	0	65535	
5314	0	65535	
5315	0	65535	
5316	0	65535	
5317	0	65535	
5318	0	65535	
5319	0	65535	
5320	0	65384	
5321	0	65288	
5322	0	65192	
5323	0	65096	
5324	0	64992	
5325	0	64888	
5326	0	64800	
5327	0	64712	
5328	0	64616	
5329	0	64544	
5330	0	64440	
5331	0	64328	
5332	0	64240	
5333	0	64136	
5334	0	64056	
5335	0	63944	
5336	0	63480	
5337	0	62336	
5338	0	61476	
5339	0	60744	
5340	0	60072	
5341	0	59456	
5342	0	58928	
5343	0	58528	
5344	0	58136	
5345	0	57728	
5346	0	57296	
5347	0	56800	
5348	0	56392	
5349	0	56160	
5350	0	56232	
5351	0	56536	
5352	0	57080	
5353	0	57800	
5354	0	58624	
5355	0	59456	
5356	0	60312	
5357	0	61064	
5358	0	61488	
5359	0	61696	
5360	0	61784	
5361	0	61776	
5362	0	61736	
5363	0	61680	
5364	0	61616	
5365	0	61536	
5366	0	61456	
5367	0	61384	
5368	0	61288	
5369	0	61208	
5370	0	61120	
5371	0	61056	
5372	0	60984	
5373	0	60896	
5374	0	59672	
5375	0	57328	
5376	0	54928	
5377	0	52600	
5378	0	50528	
5379	0	48832	
5380	0	47480	
5381	0	46368	
5382	0	45448	
5383	0	44656	
5384	0	43976	
5385	0	43360	
5386	0	42840	
5387	0	42360	
5388	0	42024	
5389	0	41824	
5390	0	41656	
5391	0	41376	
5392	0	41024	
5393	0	40664	
5394	0	40360	
5395	0	40076	
5396	0	39776	
5397	0	39528	
5398	0	39432	
5399	0	39400	
5400	0	39472	
5401	0	39544	
5402	0	39536	
5403	0	39576	
5404	0	39656	
5405	0	39896	
5406	0	40376	
5407	0	40832	
5408	0	41320	
5409	0	41960	
5410	0	42728	
5411	0	43512	
5412	0	44264	
5413	0	45040	
5414	0	45728	
5415	0	46056	
5416	0	45984	
5417	0	45536	
5418	0	44572	
5419	0	43184	
5420	0	41680	
5421	0	40168	
5422	0	38784	
5423	0	37512	
5424	0	36424	
5425	0	35424	
5426	0	34560	
5427	0	33768	
5428	0	33016	
5429	0	32330	
5430	0	31712	
5431	0	31216	
5432	0	30828	
5433	0	30540	
5434	0	30280	
5435	0	30104	
5436	0	29824	
5437	0	29632	
5438	0	29600	
5439	0	29688	
5440	0	29832	
5441	0	30008	
5442	0	30228	
5443	0	30436	
5444	0	30552	
5445	0	30640	
5446	0	30696	
5447	0	30736	
5448	0	30752	
5449	0	30800	
5450	0	30920	
5451	0	31136	
5452	0	31584	
5453	0	32248	
5454	0	33000	
5455	0	33704	
5456	0	34344	
5457	0	34888	
5458	0	35356	
5459	0	35784	
5460	0	36128	
5461	0	36304	
5462	0	36388	
5463	0	36400	
5464	0	36312	
5465	0	36184	
5466	0	35936	
5467	0	35648	
5468	0	35368	
5469	0	35240	
5470	0	35224	
5471	0	35240	
5472	0	35320	
5473	0	35524	
5474	0	35804	
5475	0	36216	
5476	0	36776	
5477	0	37424	
5478	0	38120	
5479	0	38872	
5480	0	39480	
5481	0	39968	
5482	0	40256	
5483	0	40432	
5484	0	40512	
5485	0	40568	
5486	0	40592	
5487	0	40600	
5488	0	40604	
5489	0	40568	
5490	0	40512	
5491	0	40456	
5492	0	40400	
5493	0	40384	
5494	0	40296	
5495	0	40152	
5496	0	39672	
5497	0	39008	
5498	0	38360	
5499	0	37824	
5500	0	37448	
5501	0	37104	
5502	0	36728	
5503	0	36380	
5504	0	36004	
5505	0	35636	
5506	0	35224	
5507	0	34768	
5508	0	34276	
5509	0	33808	
5510	0	33448	
5511	0	33256	
5512	0	33128	
5513	0	33076	
5514	0	33064	
5515	0	33088	
5516	0	33144	
5517	0	33144	
5518	0	33160	
5519	0	33176	
5520	0	33224	
5521	0	33344	
5522	0	33504	
5523	0	33728	
5524	0	33984	
5525	0	34280	
5526	0	34576	
5527	0	34896	
5528	0	35248	
5529	0	35676	
5530	0	36168	
5531	0	36776	
5532	0	37432	
5533	0	38136	
5534	0	38912	
5535	0	39736	
5536	0	40520	
5537	0	41200	
5538	0	41728	
5539	0	42104	
5540	0	42520	
5541	0	42968	
5542	0	43392	
5543	0	43816	
5544	0	44256	
5545	0	44728	
5546	0	45232	
5547	0	45728	
5548	0	46152	
5549	0	46544	
5550	0	46960	
5551	0	47276	
5552	0	47536	
5553	0	47884	
5554	0	48408	
5555	0	49088	
5556	0	49920	
5557	0	50736	
5558	0	51520	
5559	0	52384	
5560	0	53272	
5561	0	54120	
5562	0	54776	
5563	0	55288	
5564	0	55536	
5565	0	55528	
5566	0	55360	
5567	0	55160	
5568	0	54832	
5569	0	54360	
5570	0	53840	
5571	0	53304	
5572	0	52768	
5573	0	52288	
5574	0	51816	
5575	0	51320	
5576	0	50712	
5577	0	50144	
5578	0	49640	
5579	0	49128	
5580	0	48536	
5581	0	47912	
5582	0	47288	
5583	0	46736	
5584	0	46256	
5585	0	45848	
5586	0	45344	
5587	0	44816	
5588	0	44360	
5589	0	44024	
5590	0	43688	
5591	0	43304	
5592	0	42832	
5593	0	42280	
5594	0	41592	
5595	0	40896	
5596	0	40248	
5597	0	39664	
5598	0	38984	
5599	0	38248	
5600	0	37464	
5601	0	36728	
5602	0	35952	
5603	0	35232	
5604	0	34576	
5605	0	33960	
5606	0	33304	
5607	0	32592	
5608	0	31908	
5609	0	31260	
5610	0	30752	
5611	0	30552	
5612	0	30604	
5613	0	30920	
5614	0	31392	
5615	0	31992	
5616	0	32656	
5617	0	33256	
5618	0	33776	
5619	0	34172	
5620	0	34296	
5621	0	34296	
5622	0	34316	
5623	0	34448	
5624	0	34704	
5625	0	35088	
5626	0	35552	
5627	0	36184	
5628	0	37000	
5629	0	37852	
5630	0	38384	
5631	0	38184	
5632	0	36848	
5633	0	34488	
5634	0	31120	
5635	0	26688	
5636	0	21428	
5637	0	15504	
5638	0	9664	
5639	0	5448	
5640	0	4324	
5641	0	3940	
5642	0	3305	
5643	0	2932	
5644	0	3028	
5645	0	3342	
5646	0	4036	
5647	0	5280	
5648	0	7138	
5649	0	9913	
5650	0	13152	
5651	0	16372	
5652	0	19208	
5653	0	21848	
5654	0	24280	
5655	0	26040	
5656	0	26968	
5657	0	27760	
5658	0	28952	
5659	0	30928	
5660	0	33736	
5661	0	36920	
5662	0	40008	
5663	0	42344	
5664	0	43216	
5665	0	42464	
5666	0	40496	
5667	0	37912	
5668	0	34736	
5669	0	31232	
5670	0	28616	
5671	0	27416	
5672	0	27514	
5673	0	28568	
5674	0	30096	
5675	0	31536	
5676	0	32424	
5677	0	32432	
5678	0	32024	
5679	0	31416	
5680	0	30500	
5681	0	29400	
5682	0	28128	
5683	0	26688	
5684	0	25192	
5685	0	24072	
5686	0	23576	
5687	0	23608	
5688	0	24144	
5689	0	25468	
5690	0	27320	
5691	0	28524	
5692	0	29152	
5693	0	29304	
5694	0	28808	
5695	0	27784	
5696	0	26456	
5697	0	25044	
5698	0	23792	
5699	0	22804	
5700	0	22212	
5701	0	22040	
5702	0	22312	
5703	0	23016	
5704	0	24072	
5705	0	25544	
5706	0	27680	
5707	0	30448	
5708	0	33440	
5709	0	36192	
5710	0	38304	
5711	0	39776	
5712	0	40800	
5713	0	41464	
5714	0	41856	
5715	0	42056	
5716	0	42080	
5717	0	41920	
5718	0	41544	
5719	0	40996	
5720	0	40344	
5721	0	39584	
5722	0	38696	
5723	0	37632	
5724	0	36512	
5725	0	35296	
5726	0	34080	
5727	0	32864	
5728	0	31656	
5729	0	30688	
5730	0	30136	
5731	0	29796	
5732	0	29332	
5733	0	28800	
5734	0	28128	
5735	0	27424	
5736	0	26904	
5737	0	26556	
5738	0	26128	
5739	0	25576	
5740	0	25152	
5741	0	24604	
5742	0	23852	
5743	0	23232	
5744	0	22536	
5745	0	21688	
5746	0	20900	
5747	0	20176	
5748	0	19428	
5749	0	18600	
5750	0	17984	
5751	0	17408	
5752	0	17020	
5753	0	17032	
5754	0	17132	
5755	0	17148	
5756	0	16956	
5757	0	16336	
5758	0	15612	
5759	0	14940	
5760	0	14124	
5761	0	12760	
5762	0	10928	
5763	0	8936	
5764	0	6954	
5765	0	5237	
5766	0	3892	
5767	0	2804	
5768	0	2018	
5769	0	1412	
5770	0	968	
5771	0	694	
5772	0	672	
5773	0	941	
5774	0	1491	
5775	0	2078	
5776	0	2608	
5777	0	3301	
5778	0	3966	
5779	0	4452	
5780	0	4768	
5781	0	5218	
5782	0	5696	
5783	0	6334	
5784	0	7014	
5785	0	8024	
5786	0	9608	
5787	0	11576	
5788	0	13836	
5789	0	16192	
5790	0	18512	
5791	0	20800	
5792	0	22976	
5793	0	24808	
5794	0	26264	
5795	0	27264	
5796	0	27884	
5797	0	28064	
5798	0	27712	
5799	0	27204	
5800	0	26668	
5801	0	26048	
5802	0	25300	
5803	0	24520	
5804	0	23844	
5805	0	23452	
5806	0	23380	
5807	0	23376	
5808	0	23268	
5809	0	23424	
5810	0	23756	
5811	0	24152	
5812	0	24452	
5813	0	24632	
5814	0	24816	
5815	0	25036	
5816	0	25312	
5817	0	25560	
5818	0	25708	
5819	0	25776	
5820	0	25848	
5821	0	26040	
5822	0	26328	
5823	0	26656	
5824	0	26976	
5825	0	27504	
5826	0	28352	
5827	0	29568	
5828	0	31112	
5829	0	32928	
5830	0	34728	
5831	0	36464	
5832	0	38080	
5833	0	39696	
5834	0	41696	
5835	0	44128	
5836	0	46696	
5837	0	49608	
5838	0	52888	
5839	0	56160	
5840	0	58184	
5841	0	59336	
5842	0	59976	
5843	0	60320	
5844	0	60480	
5845	0	60544	
5846	0	60544	
5847	0	60520	
5848	0	60480	
5849	0	60400	
5850	0	60320	
5851	0	60240	
5852	0	60184	
5853	0	60120	
5854	0	60024	
5855	0	59948	
5856	0	59856	
5857	0	59792	
5858	0	59712	
5859	0	59616	
5860	0	59544	
5861	0	59464	
5862	0	59384	
5863	0	59304	
5864	0	59240	
5865	0	59152	
5866	0	59080	
5867	0	59016	
5868	0	58920	
5869	0	58856	
5870	0	58784	
5871	0	58688	
5872	0	58624	
5873	0	58560	
5874	0	58472	
5875	0	58392	
5876	0	58312	
5877	0	58248	
5878	0	58176	
5879	0	58104	
5880	0	58008	
5881	0	57952	
5882	0	57888	
5883	0	57800	
5884	0	57724	
5885	0	57664	
5886	0	57584	
5887	0	57512	
5888	0	57448	
5889	0	57376	
5890	0	57280	
5891	0	57224	
5892	0	57160	
5893	0	57080	
5894	0	57004	
5895	0	56928	
5896	0	56856	
5897	0	56800	
5898	0	56736	
5899	0	56672	
5900	0	56576	
5901	0	56512	
5902	0	56440	
5903	0	56376	
5904	0	56312	
5905	0	56232	
5906	0	56168	
5907	0	56112	
5908	0	56032	
5909	0	55968	
5910	0	55904	
5911	0	55832	
5912	0	55768	
5913	0	55692	
5914	0	55640	
5915	0	55576	
5916	0	55512	
5917	0	55440	
5918	0	55376	
5919	0	55312	
5920	0	55232	
5921	0	54336	
5922	0	50796	
5923	0	47424	
5924	0	43800	
5925	0	39916	
5926	0	36096	
5927	0	32072	
5928	0	27928	
5929	0	23904	
5930	0	19960	
5931	0	15856	
5932	0	11689	
5933	0	7356	
5934	0	3096	
5935	0	34	
5936	0	32	
5937	0	31	
5938	0	30	
5939	0	29	
5940	0	27	
5941	0	27	
5942	0	27	
5943	0	27	
5944	0	28	
5945	0	27	
5946	0	28	
5947	0	26	
5948	0	28	
5949	0	28	
5950	0	29	
5951	0	28	
5952	0	29	
5953	0	30	
5954	0	30	
5955	0	28	
5956	0	28	
5957	0	31	
5958	0	28	
5959	0	32	
5960	0	29	
5961	0	30	
5962	0	30	
5963	0	31	
5964	0	30	
5965	0	28	
5966	0	30	
5967	0	30	
5968	0	30	
5969	0	30	
5970	0	29	
5971	0	29	
5972	0	29	
5973	0	30	
5974	0	30	
5975	0	30	
5976	0	30	
5977	0	29	
5978	0	30	
5979	0	30	
5980	0	30	
5981	0	29	
5982	0	30	
5983	0	30	
5984	0	31	
5985	0	30	
5986	0	30	
5987	0	30	
5988	0	30	
5989	0	29	
5990	0	29	
5991	0	30	
5992	0	30	
5993	0	29	
5994	0	31	
5995	0	30	
5996	0	31	
5997	0	30	
5998	0	31	
5999	0	30	
6000	0	29	
6001	0	29	
6002	0	31	
6003	0	30	
6004	0	30	
6005	0	30	
6006	0	30	
6007	0	30	
6008	0	30	
6009	0	31	
6010	0	30	
6011	0	31	
6012	0	30	
6013	0	31	
6014	0	30	
6015	0	29	
6016	0	30	
6017	0	201	
6018	0	304	
6019	0	400	
6020	0	490	
6021	0	588	
6022	0	684	
6023	0	786	
6024	0	880	
6025	0	976	
6026	0	1080	
6027	0	1174	
6028	0	1264	
6029	0	1359	
6030	0	1448	
6031	0	1546	
6032	0	1644	
6033	0	1732	
6034	0	1831	
6035	0	1921	
6036	0	2017	
6037	0	2104	
6038	0	2186	
6039	0	2276	
6040	0	2371	
6041	0	2464	
6042	0	2548	
6043	0	2641	
6044	0	2735	
6045	0	2827	
6046	0	2906	
6047	0	2990	
6048	0	3089	
6049	0	3144	
6050	0	3254	
6051	0	3346	
6052	0	3426	
6053	0	3520	
6054	0	3600	
6055	0	3686	
6056	0	3776	
6057	0	3849	
6058	0	3936	
6059	0	4016	
6060	0	4117	
6061	0	4196	
6062	0	4285	
6063	0	4367	
6064	0	4460	
6065	0	4536	
6066	0	4620	
6067	0	4712	
6068	0	4770	
6069	0	4862	
6070	0	4936	
6071	0	5029	
6072	0	5105	
6073	0	5176	
6074	0	5256	
6075	0	5336	
6076	0	5418	
6077	0	5497	
6078	0	5574	
6079	0	5648	
6080	0	5738	
6081	0	5814	
6082	0	5876	
6083	0	5970	
6084	0	6044	
6085	0	6116	
6086	0	6205	
6087	0	6276	
6088	0	6349	
6089	0	6418	
6090	0	6484	
6091	0	6574	
6092	0	6640	
6093	0	6700	
6094	0	6800	
6095	0	6860	
6096	0	6944	
6097	0	7018	
6098	0	7094	
6099	0	7168	
6100	0	7236	
6101	0	7309	
6102	0	7380	
6103	0	7456	
6104	0	7517	
6105	0	7600	
6106	0	7680	
6107	0	7744	
6108	0	7820	
6109	0	7885	
6110	0	7956	
6111	0	8033	
6112	0	8098	
6113	0	8166	
6114	0	8228	
6115	0	8304	
6116	0	8370	
6117	0	8440	
6118	0	8514	
6119	0	8584	
6120	0	8640	
6121	0	8714	
6122	0	8780	
6123	0	8857	
6124	0	8912	
6125	0	8976	
6126	0	9054	
6127	0	9120	
6128	0	9198	
6129	0	9249	
6130	0	9317	
6131	0	9396	
6132	0	9452	
6133	0	9530	
6134	0	9582	
6135	0	9650	
6136	0	9716	
6137	0	9784	
6138	0	9854	
6139	0	9914	
6140	0	9988	
6141	0	10041	
6142	0	10112	
6143	0	10176	
6144	0	10232	
6145	0	10292	
6146	0	10356	
6147	0	10420	
6148	0	10488	
6149	0	10548	
6150	0	10612	
6151	0	10669	
6152	0	10732	
6153	0	10792	
6154	0	10856	
6155	0	10916	
6156	0	10976	
6157	0	11044	
6158	0	11096	
6159	0	11164	
6160	0	11220	
6161	0	11276	
6162	0	11340	
6163	0	11396	
6164	0	11452	
6165	0	11521	
6166	0	11576	
6167	0	11616	
6168	0	11680	
6169	0	11744	
6170	0	11809	
6171	0	11866	
6172	0	11932	
6173	0	11972	
6174	0	12034	
6175	0	16500	
6176	0	22584	
6177	0	29584	
6178	0	37936	
6179	0	47928	
6180	0	58848	
6181	0	65535	
6182	0	65535	
6183	0	65535	
6184	0	65535	
6185	0	65535	
6186	0	65535	
6187	0	65535	
6188	0	65535	
6189	0	65535	
6190	0	65535	
6191	0	65535	
6192	0	65535	
6193	0	65535	
6194	0	65535	
6195	0	65535	
6196	0	65535	
6197	0	58176	
6198	0	51968	
6199	0	46328	
6200	0	41304	
6201	0	36760	
6202	0	32552	
6203	0	28104	
6204	0	23188	
6205	0	17896	
6206	0	14500	
6207	0	12584	
6208	0	11534	
6209	0	10962	
6210	0	10672	
6211	0	10532	
6212	0	10474	
6213	0	10476	
6214	0	10496	
6215	0	10540	
6216	0	10592	
6217	0	10653	
6218	0	10708	
6219	0	10772	
6220	0	10828	
6221	0	10880	
6222	0	10960	
6223	0	11008	
6224	0	11080	
6225	0	11144	
6226	0	11196	
6227	0	11276	
6228	0	11328	
6229	0	11400	
6230	0	11456	
6231	0	11522	
6232	0	11592	
6233	0	11650	
6234	0	11704	
6235	0	11776	
6236	0	11832	
6237	0	11884	
6238	0	11965	
6239	0	12008	
6240	0	12065	
6241	0	12130	
6242	0	12192	
6243	0	12260	
6244	0	12316	
6245	0	12360	
6246	0	12432	
6247	0	12490	
6248	0	12544	
6249	0	12596	
6250	0	12652	
6251	0	12708	
6252	0	12768	
6253	0	12816	
6254	0	12876	
6255	0	12932	
6256	0	12978	
6257	0	13040	
6258	0	13100	
6259	0	13156	
6260	0	13200	
6261	0	13260	
6262	0	13320	
6263	0	13368	
6264	0	13417	
6265	0	13490	
6266	0	13530	
6267	0	13588	
6268	0	13644	
6269	0	13692	
6270	0	13748	
6271	0	13804	
6272	0	13852	
6273	0	13912	
6274	0	13956	
6275	0	14004	
6276	0	14064	
6277	0	14112	
6278	0	14168	
6279	0	14216	
6280	0	14264	
6281	0	14320	
6282	0	14376	
6283	0	14432	
6284	0	14468	
6285	0	14521	
6286	0	14572	
6287	0	14624	
6288	0	14672	
6289	0	14728	
6290	0	14774	
6291	0	14820	
6292	0	14876	
6293	0	14920	
6294	0	14972	
6295	0	15016	
6296	0	15077	
6297	0	15124	
6298	0	15176	
6299	0	15216	
6300	0	15274	
6301	0	15324	
6302	0	15364	
6303	0	15412	
6304	0	15461	
6305	0	15516	
6306	0	15552	
6307	0	15604	
6308	0	15652	
6309	0	15700	
6310	0	15744	
6311	0	15793	
6312	0	15840	
6313	0	15874	
6314	0	15930	
6315	0	15972	
6316	0	16032	
6317	0	16068	
6318	0	16124	
6319	0	16160	
6320	0	16212	
6321	0	16256	
6322	0	16304	
6323	0	16344	
6324	0	16396	
6325	0	16436	
6326	0	16476	
6327	0	16520	
6328	0	16552	
6329	0	16612	
6330	0	16660	
6331	0	16704	
6332	0	16744	
6333	0	16796	
6334	0	16832	
6335	0	16888	
6336	0	16920	
6337	0	16964	
6338	0	17010	
6339	0	17052	
6340	0	17092	
6341	0	17136	
6342	0	17177	
6343	0	17228	
6344	0	17272	
6345	0	17312	
6346	0	17352	
6347	0	17392	
6348	0	17441	
6349	0	17480	
6350	0	17512	
6351	0	17560	
6352	0	17600	
6353	0	17648	
6354	0	17688	
6355	0	17728	
6356	0	17760	
6357	0	17796	
6358	0	17856	
6359	0	17888	
6360	0	17940	
6361	0	17976	
6362	0	18012	
6363	0	18052	
6364	0	18100	
6365	0	18144	
6366	0	18176	
6367	0	18216	
6368	0	18260	
6369	0	18296	
6370	0	18336	
6371	0	18372	
6372	0	18416	
6373	0	18452	
6374	0	18488	
6375	0	18528	
6376	0	18570	
6377	0	18600	
6378	0	18640	
6379	0	18696	
6380	0	18724	
6381	0	18764	
6382	0	18804	
6383	0	18832	
6384	0	18880	
6385	0	18912	
6386	0	18952	
6387	0	19004	
6388	0	19028	
6389	0	19060	
6390	0	19104	
6391	0	19136	
6392	0	19181	
6393	0	19220	
6394	0	19256	
6395	0	19292	
6396	0	19332	
6397	0	19372	
6398	0	19400	
6399	0	19436	
6400	0	19472	
6401	0	19504	
6402	0	19544	
6403	0	19584	
6404	0	19620	
6405	0	19652	
6406	0	19684	
6407	0	19728	
6408	0	19752	
6409	0	19800	
6410	0	19832	
6411	0	19864	
6412	0	19904	
6413	0	19936	
6414	0	19968	
6415	0	20008	
6416	0	20033	
6417	0	20068	
6418	0	20108	
6419	0	20144	
6420	0	20176	
6421	0	20212	
6422	0	20240	
6423	0	20276	
6424	0	20314	
6425	0	20352	
6426	0	20384	
6427	0	20416	
6428	0	20460	
6429	0	20500	
6430	0	20524	
6431	0	20560	
6432	0	20584	
6433	0	20620	
6434	0	20648	
6435	0	20680	
6436	0	20716	
6437	0	20752	
6438	0	20784	
6439	0	20816	
6440	0	20844	
6441	0	20880	
6442	0	20912	
6443	0	20944	
6444	0	20976	
6445	0	21008	
6446	0	21040	
6447	0	21068	
6448	0	21106	
6449	0	21136	
6450	0	21168	
6451	0	21196	
6452	0	21228	
6453	0	21264	
6454	0	21292	
6455	0	21316	
6456	0	21352	
6457	0	21376	
6458	0	21408	
6459	0	21448	
6460	0	21480	
6461	0	21512	
6462	0	21544	
6463	0	21572	
6464	0	21596	
6465	0	21624	
6466	0	21660	
6467	0	21680	
6468	0	24440	
6469	0	27304	
6470	0	30064	
6471	0	32728	
6472	0	35424	
6473	0	38200	
6474	0	41080	
6475	0	44040	
6476	0	47056	
6477	0	50176	
6478	0	53376	
6479	0	56632	
6480	0	59912	
6481	0	63136	
6482	0	65535	
6483	0	65535	
6484	0	65535	
6485	0	65535	
6486	0	65535	
6487	0	65535	
6488	0	65535	
6489	0	65535	
6490	0	65535	
6491	0	65535	
6492	0	65535	
6493	0	65535	
6494	0	65535	
6495	0	65535	
6496	0	65535	
6497	0	65535	
6498	0	65535	
6499	0	65535	
6500	0	65535	
6501	0	65535	
6502	0	65535	
6503	0	65535	
6504	0	65535	
6505	0	65535	
6506	0	65535	
6507	0	65535	
6508	0	65535	
6509	0	65535	
6510	0	65535	
6511	0	65535	
6512	0	65535	
6513	0	65535	
6514	0	61744	
6515	0	57744	
6516	0	53808	
6517	0	49936	
6518	0	46408	
6519	0	43448	
6520	0	41000	
6521	0	39152	
6522	0	37980	
6523	0	37528	
6524	0	37696	
6525	0	38352	
6526	0	39352	
6527	0	40776	
6528	0	42504	
6529	0	44180	
6530	0	45808	
6531	0	47320	
6532	0	48432	
6533	0	49144	
6534	0	49648	
6535	0	49944	
6536	0	49896	
6537	0	49680	
6538	0	49312	
6539	0	48992	
6540	0	48696	
6541	0	48288	
6542	0	47760	
6543	0	47064	
6544	0	46400	
6545	0	45888	
6546	0	45656	
6547	0	45752	
6548	0	46176	
6549	0	46800	
6550	0	47688	
6551	0	48816	
6552	0	50064	
6553	0	51216	
6554	0	52040	
6555	0	52696	
6556	0	53272	
6557	0	53768	
6558	0	54104	
6559	0	54176	
6560	0	54104	
6561	0	53760	
6562	0	53352	
6563	0	53224	
6564	0	53368	
6565	0	53808	
6566	0	54656	
6567	0	55656	
6568	0	56816	
6569	0	58208	
6570	0	59936	
6571	0	61856	
6572	0	63688	
6573	0	65344	
6574	0	65535	
6575	0	65535	
6576	0	65535	
6577	0	65535	
6578	0	65535	
6579	0	65535	
6580	0	65535	
6581	0	65535	
6582	0	65535	
6583	0	65535	
6584	0	65535	
6585	0	65535	
6586	0	65535	
6587	0	65535	
6588	0	65535	
6589	0	65535	
6590	0	65535	
6591	0	65535	
6592	0	65535	
6593	0	65535	
6594	0	65535	
6595	0	65535	
6596	0	65535	
6597	0	65535	
6598	0	65535	
6599	0	65535	
6600	0	65535	
6601	0	65535	
6602	0	65535	
6603	0	65535	
6604	0	65535	
6605	0	65535	
6606	0	65535	
6607	0	65535	
6608	0	65535	
6609	0	65535	
6610	0	65535	
6611	0	65535	
6612	0	63464	
6613	0	61632	
6614	0	59648	
6615	0	57680	
6616	0	55848	
6617	0	54344	
6618	0	52936	
6619	0	51664	
6620	0	50728	
6621	0	50172	
6622	0	50112	
6623	0	50720	
6624	0	52192	
6625	0	54896	
6626	0	59144	
6627	0	63392	
6628	0	65535	
6629	0	65535	
6630	0	65535	
6631	0	65535	
6632	0	65535	
6633	0	65535	
6634	0	65535	
6635	0	65535	
6636	0	65535	
6637	0	65535	
6638	0	65535	
6639	0	65535	
6640	0	65535	
6641	0	65535	
6642	0	65535	
6643	0	65535	
6644	0	65535	
6645	0	65535	
6646	0	65535	
6647	0	65535	
6648	0	65535	
6649	0	65535	
6650	0	65535	
6651	0	65535	
6652	0	65535	
6653	0	65535	
6654	0	65535	
6655	0	63008	
6656	0	54016	
6657	0	44912	
6658	0	37664	
6659	0	34696	
6660	0	39884	
6661	0	50320	
6662	0	57008	
6663	0	59756	
6664	0	59032	
6665	0	57720	
6666	0	56896	
6667	0	57072	
6668	0	58296	
6669	0	60168	
6670	0	62176	
6671	0	63520	
6672	0	64240	
6673	0	64616	
6674	0	64800	
6675	0	64880	
6676	0	64864	
6677	0	64816	
6678	0	64760	
6679	0	64688	
6680	0	64608	
6681	0	64528	
6682	0	64416	
6683	0	61464	
6684	0	55272	
6685	0	48280	
6686	0	40288	
6687	0	30904	
6688	0	21700	
6689	0	14624	
6690	0	10616	
6691	0	9532	
6692	0	10498	
6693	0	12656	
6694	0	15304	
6695	0	17808	
6696	0	19824	
6697	0	22232	
6698	0	28472	
6699	0	41320	
6700	0	51056	
6701	0	56640	
6702	0	59848	
6703	0	61712	
6704	0	62744	
6705	0	63328	
6706	0	63600	
6707	0	63744	
6708	0	63800	
6709	0	63768	
6710	0	63736	
6711	0	63672	
6712	0	63592	
6713	0	63512	
6714	0	63424	
6715	0	63352	
6716	0	63256	
6717	0	63152	
6718	0	63080	
6719	0	61864	
6720	0	50144	
6721	0	38560	
6722	0	30952	
6723	0	28424	
6724	0	29380	
6725	0	31756	
6726	0	33912	
6727	0	33808	
6728	0	32288	
6729	0	32160	
6730	0	33484	
6731	0	35488	
6732	0	37168	
6733	0	38472	
6734	0	39952	
6735	0	42352	
6736	0	45744	
6737	0	50112	
6738	0	54096	
6739	0	56576	
6740	0	57728	
6741	0	57560	
6742	0	55840	
6743	0	53232	
6744	0	50920	
6745	0	49344	
6746	0	48328	
6747	0	48144	
6748	0	49000	
6749	0	50336	
6750	0	52784	
6751	0	56432	
6752	0	58744	
6753	0	59992	
6754	0	60680	
6755	0	61032	
6756	0	61208	
6757	0	61280	
6758	0	61288	
6759	0	61256	
6760	0	61200	
6761	0	61136	
6762	0	61072	
6763	0	61000	
6764	0	60912	
6765	0	60856	
6766	0	60760	
6767	0	60672	
6768	0	60592	
6769	0	60536	
6770	0	60448	
6771	0	60352	
6772	0	60280	
6773	0	60200	
6774	0	60128	
6775	0	60040	
6776	0	59976	
6777	0	59896	
6778	0	59232	
6779	0	56392	
6780	0	53848	
6781	0	51752	
6782	0	49952	
6783	0	48352	
6784	0	46960	
6785	0	45824	
6786	0	44720	
6787	0	43560	
6788	0	42560	
6789	0	42048	
6790	0	41836	
6791	0	42056	
6792	0	42768	
6793	0	43904	
6794	0	45232	
6795	0	46460	
6796	0	47600	
6797	0	48832	
6798	0	49784	
6799	0	50536	
6800	0	51160	
6801	0	52016	
6802	0	53064	
6803	0	53824	
6804	0	54016	
6805	0	53320	
6806	0	51328	
6807	0	48064	
6808	0	44112	
6809	0	40536	
6810	0	37560	
6811	0	34976	
6812	0	32416	
6813	0	29872	
6814	0	27456	
6815	0	25192	
6816	0	23016	
6817	0	20768	
6818	0	18400	
6819	0	15992	
6820	0	13592	
6821	0	11228	
6822	0	8940	
6823	0	6910	
6824	0	5342	
6825	0	4256	
6826	0	3490	
6827	0	3026	
6828	0	2805	
6829	0	2717	
6830	0	2827	
6831	0	3108	
6832	0	3698	
6833	0	4436	
6834	0	4922	
6835	0	4828	
6836	0	4182	
6837	0	3000	
6838	0	1435	
6839	0	32	
6840	0	30	
6841	0	32	
6842	0	30	
6843	0	31	
6844	0	30	
6845	0	30	
6846	0	30	
6847	0	30	
6848	0	29	
6849	0	30	
6850	0	29	
6851	0	29	
6852	0	31	
6853	0	30	
6854	0	30	
6855	0	29	
6856	0	30	
6857	0	30	
6858	0	31	
6859	0	30	
6860	0	29	
6861	0	31	
6862	0	29	
6863	0	30	
6864	0	29	
6865	0	30	
6866	0	30	
6867	0	29	
6868	0	30	
6869	0	30	
6870	0	31	
6871	0	29	
6872	0	30	
6873	0	29	
6874	0	31	
6875	0	31	
6876	0	29	
6877	0	30	
6878	0	30	
6879	0	31	
6880	0	30	
6881	0	29	
6882	0	29	
6883	0	29	
6884	0	29	
6885	0	30	
6886	0	156	
6887	0	268	
6888	0	364	
6889	0	459	
6890	0	556	
6891	0	657	
6892	0	759	
6893	0	854	
6894	0	948	
6895	0	1040	
6896	0	1138	
6897	0	1242	
6898	0	1335	
6899	0	1433	
6900	0	1506	
6901	0	1610	
6902	0	1711	
6903	0	1807	
6904	0	1892	
6905	0	1984	
6906	0	2082	
6907	0	2168	
6908	0	2248	
6909	0	2349	
6910	0	2443	
6911	0	2537	
6912	0	2626	
6913	0	2713	
6914	0	2810	
6915	0	2887	
6916	0	2999	
6917	0	3072	
6918	0	3171	
6919	0	3248	
6920	0	3330	
6921	0	3425	
6922	0	3504	
6923	0	3608	
6924	0	3683	
6925	0	3768	
6926	0	3865	
6927	0	3945	
6928	0	4038	
6929	0	4113	
6930	0	4205	
6931	0	4274	
6932	0	4362	
6933	0	4445	
6934	0	4528	
6935	0	4608	
6936	0	4692	
6937	0	4776	
6938	0	4852	
6939	0	4928	
6940	0	5004	
6941	0	5101	
6942	0	5172	
6943	0	5256	
6944	0	5344	
6945	0	5428	
6946	0	5496	
6947	0	5578	
6948	0	5653	
6949	0	5734	
6950	0	5800	
6951	0	5878	
6952	0	5954	
6953	0	6037	
6954	0	6120	
6955	0	6190	
6956	0	6256	
6957	0	6350	
6958	0	6426	
6959	0	6512	
6960	0	6572	
6961	0	6654	
6962	0	6720	
6963	0	6800	
6964	0	6872	
6965	0	6933	
6966	0	7012	
6967	0	7096	
6968	0	7172	
6969	0	7246	
6970	0	7320	
6971	0	7386	
6972	0	7466	
6973	0	7536	
6974	0	7604	
6975	0	7678	
6976	0	7752	
6977	0	7836	
6978	0	7906	
6979	0	7966	
6980	0	8040	
6981	0	8106	
6982	0	8182	
6983	0	8250	
6984	0	8316	
6985	0	8384	
6986	0	8460	
6987	0	8520	
6988	0	8592	
6989	0	8660	
6990	0	8730	
6991	0	8800	
6992	0	8865	
6993	0	8936	
6994	0	9012	
6995	0	9077	
6996	0	9144	
6997	0	9212	
6998	0	9272	
6999	0	9340	
7000	0	9408	
7001	0	9472	
7002	0	9541	
7003	0	9604	
7004	0	9673	
7005	0	9733	
7006	0	9797	
7007	0	9864	
7008	0	9921	
7009	0	9988	
7010	0	10060	
7011	0	10112	
7012	0	10172	
7013	0	10256	
7014	0	10305	
7015	0	10380	
7016	0	10440	
7017	0	10496	
7018	0	10560	
7019	0	10616	
7020	0	10688	
7021	0	10756	
7022	0	10816	
7023	0	10872	
7024	0	10940	
7025	0	10996	
7026	0	11068	
7027	0	13208	
7028	0	16968	
7029	0	19525	
7030	0	20496	
7031	0	20860	
7032	0	21040	
7033	0	20708	
7034	0	19776	
7035	0	18354	
7036	0	16552	
7037	0	14520	
7038	0	13192	
7039	0	12512	
7040	0	12153	
7041	0	11988	
7042	0	11940	
7043	0	11936	
7044	0	11960	
7045	0	12012	
7046	0	12048	
7047	0	12465	
7048	0	15428	
7049	0	18256	
7050	0	20832	
7051	0	23176	
7052	0	25376	
7053	0	27544	
7054	0	29752	
7055	0	31960	
7056	0	34360	
7057	0	36928	
7058	0	39400	
7059	0	41616	
7060	0	43592	
7061	0	45576	
7062	0	47632	
7063	0	49664	
7064	0	51520	
7065	0	53240	
7066	0	54944	
7067	0	56664	
7068	0	58248	
7069	0	59384	
7070	0	59984	
7071	0	60040	
7072	0	59560	
7073	0	58656	
7074	0	57392	
7075	0	55832	
7076	0	54064	
7077	0	52120	
7078	0	50064	
7079	0	47952	
7080	0	45824	
7081	0	43472	
7082	0	40424	
7083	0	36496	
7084	0	31924	
7085	0	26916	
7086	0	21384	
7087	0	16876	
7088	0	14360	
7089	0	12957	
7090	0	12212	
7091	0	11802	
7092	0	11600	
7093	0	11508	
7094	0	11497	
7095	0	11508	
7096	0	11538	
7097	0	11584	
7098	0	11630	
7099	0	11684	
7100	0	11740	
7101	0	11808	
7102	0	11868	
7103	0	11920	
7104	0	11978	
7105	0	12042	
7106	0	12106	
7107	0	12160	
7108	0	12220	
7109	0	12276	
7110	0	12336	
7111	0	12404	
7112	0	12457	
7113	0	12520	
7114	0	12584	
7115	0	12636	
7116	0	12693	
7117	0	12754	
7118	0	12821	
7119	0	12860	
7120	0	12924	
7121	0	12976	
7122	0	13036	
7123	0	13092	
7124	0	13160	
7125	0	13204	
7126	0	13256	
7127	0	13304	
7128	0	13368	
7129	0	13408	
7130	0	13468	
7131	0	13516	
7132	0	13580	
7133	0	13616	
7134	0	13688	
7135	0	13746	
7136	0	13792	
7137	0	13840	
7138	0	13900	
7139	0	13952	
7140	0	14000	
7141	0	14060	
7142	0	14108	
7143	0	14164	
7144	0	14216	
7145	0	14272	
7146	0	14308	
7147	0	14368	
7148	0	14420	
7149	0	14468	
7150	0	14528	
7151	0	14560	
7152	0	14620	
7153	0	14680	
7154	0	14728	
7155	0	14764	
7156	0	14824	
7157	0	14876	
7158	0	14936	
7159	0	14980	
7160	0	15016	
7161	0	15056	
7162	0	15120	
7163	0	15170	
7164	0	15224	
7165	0	15268	
7166	0	15312	
7167	0	15362	
7168	0	15424	
7169	0	15473	
7170	0	15512	
7171	0	15560	
7172	0	15612	
7173	0	15648	
7174	0	15696	
7175	0	15756	
7176	0	15800	
7177	0	15844	
7178	0	15888	
7179	0	15940	
7180	0	15992	
7181	0	16040	
7182	0	16073	
7183	0	16128	
7184	0	16160	
7185	0	16210	
7186	0	16256	
7187	0	16304	
7188	0	16352	
7189	0	16409	
7190	0	16452	
7191	0	16504	
7192	0	16536	
7193	0	16584	
7194	0	16620	
7195	0	16672	
7196	0	16724	
7197	0	16760	
7198	0	16808	
7199	0	16852	
7200	0	16892	
7201	0	16932	
7202	0	16986	
7203	0	17028	
7204	0	17064	
7205	0	29816	
7206	0	47680	
7207	0	62096	
7208	0	65535	
7209	0	65535	
7210	0	65535	
7211	0	65535	
7212	0	65535	
7213	0	65535	
7214	0	65535	
7215	0	65535	
7216	0	65535	
7217	0	65535	
7218	0	65535	
7219	0	65535	
7220	0	65535	
7221	0	65535	
7222	0	65535	
7223	0	65535	
7224	0	65535	
7225	0	65535	
7226	0	65535	
7227	0	65535	
7228	0	65535	
7229	0	65535	
7230	0	65535	
7231	0	65535	
7232	0	65535	
7233	0	65535	
7234	0	65535	
7235	0	65535	
7236	0	65535	
7237	0	65535	
7238	0	65535	
7239	0	65535	
7240	0	65535	
7241	0	65535	
7242	0	65535	
7243	0	65535	
7244	0	65535	
7245	0	65535	
7246	0	65535	
7247	0	65535	
7248	0	65535	
7249	0	65535	
7250	0	65535	
7251	0	65535	
7252	0	65535	
7253	0	65535	
7254	0	65535	
7255	0	65535	
7256	0	65535	
7257	0	65535	
7258	0	65535	
7259	0	65535	
7260	0	65535	
7261	0	65535	
7262	0	65535	
7263	0	65535	
7264	0	65535	
7265	0	65535	
7266	0	65535	
7267	0	65535	
7268	0	65535	
7269	0	65535	
7270	0	65535	
7271	0	65535	
7272	0	65535	
7273	0	65535	
7274	0	65535	
7275	0	65535	
7276	0	65535	
7277	0	65535	
7278	0	65535	
7279	0	65535	
7280	0	65535	
7281	0	65535	
7282	0	65535	
7283	0	65535	
7284	0	65535	
7285	0	65535	
7286	0	65535	
7287	0	65535	
7288	0	65535	
7289	0	65535	
7290	0	65535	
7291	0	65535	
7292	0	65535	
7293	0	65535	
7294	0	65535	
7295	0	65535	
7296	0	65535	
7297	0	65535	
7298	0	65535	
7299	0	65535	
7300	0	65535	
7301	0	65535	
7302	0	65535	
7303	0	65535	
7304	0	65535	
7305	0	65535	
7306	0	65535	
7307	0	65535	
7308	0	65535	
7309	0	65535	
7310	0	65535	
7311	0	65535	
7312	0	65535	
7313	0	65535	
7314	0	65535	
7315	0	65535	
7316	0	65535	
7317	0	65535	
7318	0	65535	
7319	0	65535	
7320	0	65535	
7321	0	65535	
7322	0	65535	
7323	0	65535	
7324	0	65535	
7325	0	65535	
7326	0	65535	
7327	0	65535	
7328	0	65535	
7329	0	65535	
7330	0	65535	
7331	0	65535	
7332	0	65535	
7333	0	65535	
7334	0	65535	
7335	0	65535	
7336	0	65535	
7337	0	63872	
7338	0	61928	
7339	0	60520	
7340	0	59648	
7341	0	59240	
7342	0	59280	
7343	0	59728	
7344	0	60456	
7345	0	61296	
7346	0	62104	
7347	0	62784	
7348	0	63232	
7349	0	63448	
7350	0	63480	
7351	0	63168	
7352	0	62536	
7353	0	61688	
7354	0	60392	
7355	0	58640	
7356	0	57672	
7357	0	57352	
7358	0	57808	
7359	0	58928	
7360	0	60224	
7361	0	61488	
7362	0	62256	
7363	0	62672	
7364	0	62856	
7365	0	62912	
7366	0	62896	
7367	0	62840	
7368	0	62792	
7369	0	62720	
7370	0	62632	
7371	0	62560	
7372	0	61072	
7373	0	55752	
7374	0	49888	
7375	0	43424	
7376	0	36664	
7377	0	29520	
7378	0	22444	
7379	0	15944	
7380	0	9836	
7381	0	4647	
7382	0	1628	
7383	0	31	
7384	0	31	
7385	0	30	
7386	0	30	
7387	0	30	
7388	0	30	
7389	0	30	
7390	0	30	
7391	0	29	
7392	0	29	
7393	0	29	
7394	0	30	
7395	0	30	
7396	0	2265	
7397	0	4704	
7398	0	6913	
7399	0	8936	
7400	0	10697	
7401	0	12170	
7402	0	13290	
7403	0	14048	
7404	0	14562	
7405	0	15000	
7406	0	15440	
7407	0	15968	
7408	0	16688	
7409	0	17692	
7410	0	19024	
7411	0	20780	
7412	0	22744	
7413	0	24528	
7414	0	26148	
7415	0	27656	
7416	0	28880	
7417	0	29760	
7418	0	30280	
7419	0	30672	
7420	0	31020	
7421	0	31408	
7422	0	31824	
7423	0	32264	
7424	0	32744	
7425	0	33276	
7426	0	33456	
7427	0	33240	
7428	0	32856	
7429	0	32440	
7430	0	32088	
7431	0	31728	
7432	0	31424	
7433	0	30936	
7434	0	30352	
7435	0	29848	
7436	0	29412	
7437	0	29016	
7438	0	28712	
7439	0	28496	
7440	0	28332	
7441	0	28184	
7442	0	28148	
7443	0	28256	
7444	0	28504	
7445	0	28844	
7446	0	29368	
7447	0	30076	
7448	0	30928	
7449	0	31848	
7450	0	32780	
7451	0	33764	
7452	0	34624	
7453	0	35376	
7454	0	36008	
7455	0	36584	
7456	0	37016	
7457	0	37240	
7458	0	37088	
7459	0	36504	
7460	0	35592	
7461	0	34352	
7462	0	32824	
7463	0	31120	
7464	0	29376	
7465	0	27552	
7466	0	25636	
7467	0	23676	
7468	0	21780	
7469	0	19992	
7470	0	18200	
7471	0	16520	
7472	0	15040	
7473	0	13912	
7474	0	13164	
7475	0	12808	
7476	0	12956	
7477	0	13580	
7478	0	14612	
7479	0	15948	
7480	0	17632	
7481	0	19552	
7482	0	21624	
7483	0	23728	
7484	0	25824	
7485	0	27912	
7486	0	29992	
7487	0	32032	
7488	0	34072	
7489	0	36044	
7490	0	37896	
7491	0	39648	
7492	0	41424	
7493	0	43288	
7494	0	45144	
7495	0	46864	
7496	0	48376	
7497	0	49752	
7498	0	51136	
7499	0	52344	
7500	0	53464	
7501	0	54680	
7502	0	55992	
7503	0	57376	
7504	0	58920	
7505	0	60608	
7506	0	62296	
7507	0	63424	
7508	0	64024	
7509	0	64336	
7510	0	64504	
7511	0	64520	
7512	0	64512	
7513	0	64464	
7514	0	64408	
7515	0	64320	
7516	0	64264	
7517	0	64152	
7518	0	64064	
7519	0	63976	
7520	0	63880	
7521	0	63808	
7522	0	63688	
7523	0	63608	
7524	0	63528	
7525	0	63432	
7526	0	63328	
7527	0	63240	
7528	0	63144	
7529	0	63064	
7530	0	62952	
7531	0	62880	
7532	0	62792	
7533	0	62688	
7534	0	62584	
7535	0	62512	
7536	0	62424	
7537	0	62344	
7538	0	62248	
7539	0	62160	
7540	0	62072	
7541	0	61984	
7542	0	61888	
7543	0	61816	
7544	0	61736	
7545	0	61648	
7546	0	61560	
7547	0	61472	
7548	0	61392	
7549	0	61304	
7550	0	61216	
7551	0	61136	
7552	0	61048	
7553	0	60976	
7554	0	60888	
7555	0	60792	
7556	0	60728	
7557	0	60640	
7558	0	60560	
7559	0	60496	
7560	0	60392	
7561	0	60328	
7562	0	60264	
7563	0	60176	
7564	0	60088	
7565	0	60024	
7566	0	59928	
7567	0	59864	
7568	0	59784	
7569	0	59704	
7570	0	59624	
7571	0	59552	
7572	0	59464	
7573	0	59392	
7574	0	59328	
7575	0	59240	
7576	0	58712	
7577	0	58344	
7578	0	58504	
7579	0	58688	
7580	0	58720	
7581	0	58712	
7582	0	58680	
7583	0	58624	
7584	0	58560	
7585	0	58504	
7586	0	58416	
7587	0	58344	
7588	0	58288	
7589	0	58216	
7590	0	58136	
7591	0	58056	
7592	0	57992	
7593	0	57920	
7594	0	57856	
7595	0	57768	
7596	0	57704	
7597	0	57632	
7598	0	57584	
7599	0	57512	
7600	0	57432	
7601	0	57352	
7602	0	57296	
7603	0	57224	
7604	0	57152	
7605	0	57088	
7606	0	57024	
7607	0	56952	
7608	0	56888	
7609	0	56824	
7610	0	56752	
7611	0	56680	
7612	0	56608	
7613	0	56552	
7614	0	56480	
7615	0	56408	
7616	0	56344	
7617	0	56280	
7618	0	56216	
7619	0	56152	
7620	0	56088	
7621	0	56032	
7622	0	55952	
7623	0	55896	
7624	0	55824	
7625	0	55768	
7626	0	55712	
7627	0	55640	
7628	0	55568	
7629	0	55512	
7630	0	55440	
7631	0	55384	
7632	0	55328	
7633	0	55256	
7634	0	55192	
7635	0	55136	
7636	0	55072	
7637	0	55016	
7638	0	54944	
7639	0	54888	
7640	0	54832	
7641	0	54776	
7642	0	54712	
7643	0	54648	
7644	0	54584	
7645	0	54520	
7646	0	54464	
7647	0	54416	
7648	0	54336	
7649	0	54288	
7650	0	54208	
7651	0	54168	
7652	0	54096	
7653	0	54056	
7654	0	53984	
7655	0	53936	
7656	0	53864	
7657	0	53816	
7658	0	53760	
7659	0	53696	
7660	0	53640	
7661	0	53584	
7662	0	53536	
7663	0	53456	
7664	0	53416	
7665	0	53360	
7666	0	53288	
7667	0	53244	
7668	0	53192	
7669	0	53128	
7670	0	51712	
7671	0	48160	
7672	0	44432	
7673	0	40384	
7674	0	35988	
7675	0	31312	
7676	0	26092	
7677	0	20161	
7678	0	14138	
7679	0	8703	
7680	0	4213	
7681	0	695	
7682	0	32	
7683	0	31	
7684	0	31	
7685	0	30	
7686	0	30	
7687	0	30	
7688	0	1595	
7689	0	8520	
7690	0	15264	
7691	0	18648	
7692	0	18084	
7693	0	13960	
7694	0	7969	
7695	0	2059	
7696	0	33	
7697	0	29	
7698	0	29	
7699	0	1826	
7700	0	6732	
7701	0	13342	
7702	0	21916	
7703	0	31700	
7704	0	41040	
7705	0	46792	
7706	0	50144	
7707	0	52092	
7708	0	53200	
7709	0	53840	
7710	0	54160	
7711	0	54344	
7712	0	54424	
7713	0	54448	
7714	0	54424	
7715	0	54392	
7716	0	54344	
7717	0	54304	
7718	0	54256	
7719	0	54184	
7720	0	54120	
7721	0	54064	
7722	0	54012	
7723	0	53952	
7724	0	53888	
7725	0	53824	
7726	0	53760	
7727	0	53704	
7728	0	53640	
7729	0	53584	
7730	0	53520	
7731	0	53456	
7732	0	53400	
7733	0	53328	
7734	0	53280	
7735	0	53216	
7736	0	53160	
7737	0	53112	
7738	0	53040	
7739	0	52976	
7740	0	52928	
7741	0	52864	
7742	0	52808	
7743	0	52760	
7744	0	52704	
7745	0	52648	
7746	0	52584	
7747	0	52544	
7748	0	52480	
7749	0	52440	
7750	0	52376	
7751	0	52320	
7752	0	52264	
7753	0	52228	
7754	0	52168	
7755	0	52104	
7756	0	52056	
7757	0	52000	
7758	0	51944	
7759	0	51896	
7760	0	51832	
7761	0	51784	
7762	0	51736	
7763	0	51680	
7764	0	51624	
7765	0	51576	
7766	0	51536	
7767	0	51472	
7768	0	51424	
7769	0	51376	
7770	0	51328	
7771	0	51272	
7772	0	51232	
7773	0	51168	
7774	0	51120	
7775	0	51056	
7776	0	51016	
7777	0	50960	
7778	0	50920	
7779	0	50856	
7780	0	50816	
7781	0	50776	
7782	0	50728	
7783	0	50664	
7784	0	50624	
7785	0	50576	
7786	0	50536	
7787	0	50480	
7788	0	50424	
7789	0	50384	
7790	0	50344	
7791	0	50288	
7792	0	50240	
7793	0	50192	
7794	0	50152	
7795	0	50096	
7796	0	50056	
7797	0	50016	
7798	0	49960	
7799	0	49912	
7800	0	49872	
7801	0	49816	
7802	0	49784	
7803	0	49736	
7804	0	49688	
7805	0	49640	
7806	0	49600	
7807	0	49288	
7808	0	46776	
7809	0	45464	
7810	0	44592	
7811	0	43560	
7812	0	43288	
7813	0	44180	
7814	0	46192	
7815	0	47552	
7816	0	48288	
7817	0	48672	
7818	0	48864	
7819	0	48944	
7820	0	48976	
7821	0	48972	
7822	0	48960	
7823	0	48904	
7824	0	48888	
7825	0	48840	
7826	0	48784	
7827	0	48760	
7828	0	48712	
7829	0	48668	
7830	0	48616	
7831	0	48592	
7832	0	48544	
7833	0	48492	
7834	0	48456	
7835	0	48416	
7836	0	48376	
7837	0	48328	
7838	0	48288	
7839	0	48252	
7840	0	48200	
7841	0	48168	
7842	0	48120	
7843	0	48072	
7844	0	48032	
7845	0	47996	
7846	0	47968	
7847	0	47920	
7848	0	47872	
7849	0	47840	
7850	0	47784	
7851	0	47752	
7852	0	47712	
7853	0	47680	
7854	0	47632	
7855	0	47592	
7856	0	47560	
7857	0	47520	
7858	0	47472	
7859	0	47432	
7860	0	47392	
7861	0	47352	
7862	0	47320	
7863	0	47280	
7864	0	47240	
7865	0	47208	
7866	0	47152	
7867	0	47128	
7868	0	47080	
7869	0	47040	
7870	0	47008	
7871	0	46968	
7872	0	46936	
7873	0	46896	
7874	0	46856	
7875	0	46800	
7876	0	46768	
7877	0	46744	
7878	0	46696	
7879	0	46656	
7880	0	46624	
7881	0	46592	
7882	0	46568	
7883	0	46528	
7884	0	46464	
7885	0	46440	
7886	0	46400	
7887	0	46352	
7888	0	46328	
7889	0	46296	
7890	0	46248	
7891	0	46224	
7892	0	46184	
7893	0	46144	
7894	0	46112	
7895	0	46088	
7896	0	46048	
7897	0	46016	
7898	0	45960	
7899	0	45944	
7900	0	45896	
7901	0	45864	
7902	0	45024	
7903	0	43520	
7904	0	42184	
7905	0	40912	
7906	0	39592	
7907	0	38296	
7908	0	37240	
7909	0	36332	
7910	0	35512	
7911	0	34840	
7912	0	34392	
7913	0	34144	
7914	0	34016	
7915	0	34024	
7916	0	33840	
7917	0	33472	
7918	0	32704	
7919	0	31536	
7920	0	29832	
7921	0	27404	
7922	0	24224	
7923	0	20400	
7924	0	16116	
7925	0	11472	
7926	0	6493	
7927	0	1599	
7928	0	33	
7929	0	31	
7930	0	27	
7931	0	21	
7932	0	18	
7933	0	16	
7934	0	17	
7935	0	18	
7936	0	17	
7937	0	18	
7938	0	19	
7939	0	20	
7940	0	20	
7941	0	21	
7942	0	22	
7943	0	22	
7944	0	22	
7945	0	23	
7946	0	23	
7947	0	24	
7948	0	26	
7949	0	23	
7950	0	25	
7951	0	26	
7952	0	26	
7953	0	25	
7954	0	26	
7955	0	26	
7956	0	28	
7957	0	28	
7958	0	27	
7959	0	28	
7960	0	28	
7961	0	26	
7962	0	27	
7963	0	27	
7964	0	29	
7965	0	28	
7966	0	29	
7967	0	28	
7968	0	29	
7969	0	28	
7970	0	30	
7971	0	29	
7972	0	29	
7973	0	29	
7974	0	29	
7975	0	30	
7976	0	29	
7977	0	30	
7978	0	30	
7979	0	30	
7980	0	29	
7981	0	30	
7982	0	30	
7983	0	30	
7984	0	29	
7985	0	31	
7986	0	30	
7987	0	30	
7988	0	30	
7989	0	29	
7990	0	30	
7991	0	30	
7992	0	31	
7993	0	30	
7994	0	2246	
7995	0	4862	
7996	0	7626	
7997	0	10278	
7998	0	12796	
7999	0	15097	
8000	0	17272	
8001	0	19425	
8002	0	21472	
8003	0	23344	
8004	0	25088	
8005	0	26812	
8006	0	28544	
8007	0	30224	
8008	0	31808	
8009	0	33264	
8010	0	34728	
8011	0	36192	
8012	0	37656	
8013	0	39296	
8014	0	41304	
8015	0	43856	
8016	0	47208	
8017	0	51056	
8018	0	53936	
8019	0	55616	
8020	0	56700	
8021	0	57496	
8022	0	57944	
8023	0	58008	
8024	0	57792	
8025	0	57416	
8026	0	56912	
8027	0	56428	
8028	0	55824	
8029	0	54940	
8030	0	53816	
8031	0	52584	
8032	0	51328	
8033	0	49984	
8034	0	48664	
8035	0	47504	
8036	0	46380	
8037	0	45312	
8038	0	44520	
8039	0	43880	
8040	0	43152	
8041	0	42352	
8042	0	41448	
8043	0	40288	
8044	0	38868	
8045	0	37256	
8046	0	35408	
8047	0	33432	
8048	0	31456	
8049	0	29600	
8050	0	27936	
8051	0	26560	
8052	0	25520	
8053	0	24984	
8054	0	25024	
8055	0	25504	
8056	0	26392	
8057	0	27832	
8058	0	29576	
8059	0	30744	
8060	0	31064	
8061	0	30080	
8062	0	27560	
8063	0	23832	
8064	0	19320	
8065	0	14300	
8066	0	8952	
8067	0	3601	
8068	0	120	
8069	0	31	
8070	0	31	
8071	0	31	
8072	0	29	
8073	0	29	
8074	0	30	
8075	0	29	
8076	0	30	
8077	0	30	
8078	0	30	
8079	0	29	
8080	0	30	
8081	0	30	
8082	0	30	
8083	0	30	
8084	0	30	
8085	0	29	
8086	0	30	
8087	0	29	
8088	0	30	
8089	0	30	
8090	0	29	
8091	0	31	
8092	0	30	
8093	0	29	
8094	0	30	
8095	0	31	
8096	0	30	
8097	0	30	
8098	0	30	
8099	0	28	
8100	0	31	
8101	0	30	
8102	0	29	
8103	0	31	
8104	0	31	
8105	0	30	
8106	0	29	
8107	0	30	
8108	0	29	
8109	0	30	
8110	0	30	
8111	0	30	
8112	0	30	
8113	0	31	
8114	0	30	
8115	0	199	
8116	0	299	
8117	0	392	
8118	0	484	
8119	0	581	
8120	0	679	
8121	0	774	
8122	0	869	
