# OpenSignals Text File Format
# {"00:07:80:F9:DE:B2": {"sensor": ["ECG"], "device name": "00:07:80:F9:DE:B2", "column": ["nSeq", "DI", "CH1"], "sync interval": 2, "time": "14:20:40.298", "comments": "", "device connection": "BTH00:07:80:F9:DE:B2", "channels": [1], "keywords": "", "mode": 0, "digital IO": [0, 1], "firmware version": 773, "device": "biosignalsplux", "position": 0, "sampling rate": 1000, "label": ["CH1"], "resolution": [16], "date": "2018-9-25", "special": [{}]}}
# EndOfHeader
0	0	32544	
1	0	32544	
2	0	32560	
3	0	32592	
4	0	32640	
5	0	32672	
6	0	32688	
7	0	32720	
8	0	32724	
9	0	32744	
10	0	32776	
11	0	32792	
12	0	32804	
13	0	32820	
14	0	32816	
15	0	32816	
16	0	32812	
17	0	32808	
18	0	32804	
19	0	32808	
20	0	32800	
21	0	32824	
22	0	32824	
23	0	32840	
24	0	32856	
25	0	32880	
26	0	32884	
27	0	32888	
28	0	32904	
29	0	32904	
30	0	32904	
31	0	32904	
32	0	32904	
33	0	32904	
34	0	32880	
35	0	32888	
36	0	32872	
37	0	32864	
38	0	32856	
39	0	32840	
40	0	32832	
41	0	32808	
42	0	32812	
43	0	32824	
44	0	32836	
45	0	32856	
46	0	32872	
47	0	32876	
48	0	32888	
49	0	32876	
50	0	32864	
51	0	32856	
52	0	32856	
53	0	32856	
54	0	32840	
55	0	32808	
56	0	32784	
57	0	32776	
58	0	32756	
59	0	32728	
60	0	32716	
61	0	32688	
62	0	32664	
63	0	32632	
64	0	32604	
65	0	32584	
66	0	32568	
67	0	32548	
68	0	32528	
69	0	32500	
70	0	32480	
71	0	32464	
72	0	32464	
73	0	32448	
74	0	32420	
75	0	32376	
76	0	32324	
77	0	32280	
78	0	32236	
79	0	32200	
80	0	32176	
81	0	32160	
82	0	32136	
83	0	32096	
84	0	32056	
85	0	32032	
86	0	32016	
87	0	31996	
88	0	31976	
89	0	31952	
90	0	31948	
91	0	31920	
92	0	31904	
93	0	31872	
94	0	31856	
95	0	31832	
96	0	31816	
97	0	31784	
98	0	31768	
99	0	31724	
100	0	31680	
101	0	31656	
102	0	31636	
103	0	31616	
104	0	31600	
105	0	31592	
106	0	31592	
107	0	31608	
108	0	31608	
109	0	31604	
110	0	31608	
111	0	31600	
112	0	31584	
113	0	31584	
114	0	31576	
115	0	31560	
116	0	31560	
117	0	31568	
118	0	31576	
119	0	31576	
120	0	31552	
121	0	31528	
122	0	31520	
123	0	31520	
124	0	31528	
125	0	31552	
126	0	31552	
127	0	31560	
128	0	31580	
129	0	31584	
130	0	31592	
131	0	31592	
132	0	31608	
133	0	31616	
134	0	31628	
135	0	31616	
136	0	31608	
137	0	31600	
138	0	31580	
139	0	31580	
140	0	31584	
141	0	31592	
142	0	31608	
143	0	31616	
144	0	31624	
145	0	31632	
146	0	31640	
147	0	31648	
148	0	31680	
149	0	31696	
150	0	31712	
151	0	31752	
152	0	31776	
153	0	31792	
154	0	31800	
155	0	31800	
156	0	31800	
157	0	31800	
158	0	31788	
159	0	31808	
160	0	31808	
161	0	31808	
162	0	31832	
163	0	31832	
164	0	31840	
165	0	31864	
166	0	31888	
167	0	31904	
168	0	31928	
169	0	31924	
170	0	31936	
171	0	31960	
172	0	31968	
173	0	31976	
174	0	31968	
175	0	31980	
176	0	31984	
177	0	31976	
178	0	31988	
179	0	31980	
180	0	31980	
181	0	32000	
182	0	31996	
183	0	32000	
184	0	31984	
185	0	32000	
186	0	32016	
187	0	32040	
188	0	32064	
189	0	32080	
190	0	32100	
191	0	32128	
192	0	32144	
193	0	32152	
194	0	32160	
195	0	32168	
196	0	32152	
197	0	32148	
198	0	32140	
199	0	32136	
200	0	32124	
201	0	32120	
202	0	32120	
203	0	32104	
204	0	32108	
205	0	32104	
206	0	32112	
207	0	32112	
208	0	32120	
209	0	32124	
210	0	32128	
211	0	32128	
212	0	32152	
213	0	32160	
214	0	32168	
215	0	32160	
216	0	32152	
217	0	32136	
218	0	32112	
219	0	32096	
220	0	32064	
221	0	32040	
222	0	32040	
223	0	32048	
224	0	32080	
225	0	32096	
226	0	32100	
227	0	32104	
228	0	32100	
229	0	32104	
230	0	32120	
231	0	32120	
232	0	32128	
233	0	32124	
234	0	32120	
235	0	32128	
236	0	32120	
237	0	32104	
238	0	32104	
239	0	32096	
240	0	32088	
241	0	32080	
242	0	32088	
243	0	32080	
244	0	32096	
245	0	32120	
246	0	32128	
247	0	32136	
248	0	32136	
249	0	32148	
250	0	32160	
251	0	32160	
252	0	32152	
253	0	32136	
254	0	32128	
255	0	32120	
256	0	32112	
257	0	32088	
258	0	32088	
259	0	32072	
260	0	32072	
261	0	32076	
262	0	32076	
263	0	32088	
264	0	32080	
265	0	32104	
266	0	32112	
267	0	32128	
268	0	32132	
269	0	32144	
270	0	32160	
271	0	32168	
272	0	32168	
273	0	32176	
274	0	32176	
275	0	32168	
276	0	32168	
277	0	32164	
278	0	32176	
279	0	32164	
280	0	32168	
281	0	32152	
282	0	32184	
283	0	32176	
284	0	32202	
285	0	32216	
286	0	32224	
287	0	32232	
288	0	32260	
289	0	32280	
290	0	32272	
291	0	32288	
292	0	32296	
293	0	32312	
294	0	32328	
295	0	32328	
296	0	32332	
297	0	32312	
298	0	32312	
299	0	32308	
300	0	32304	
301	0	32312	
302	0	32312	
303	0	32296	
304	0	32304	
305	0	32312	
306	0	32320	
307	0	32360	
308	0	32360	
309	0	32368	
310	0	32384	
311	0	32412	
312	0	32416	
313	0	32424	
314	0	32408	
315	0	32400	
316	0	32408	
317	0	32408	
318	0	32408	
319	0	32412	
320	0	32428	
321	0	32432	
322	0	32424	
323	0	32428	
324	0	32432	
325	0	32456	
326	0	32456	
327	0	32496	
328	0	32512	
329	0	32520	
330	0	32540	
331	0	32536	
332	0	32544	
333	0	32528	
334	0	32528	
335	0	32512	
336	0	32520	
337	0	32528	
338	0	32524	
339	0	32536	
340	0	32544	
341	0	32560	
342	0	32552	
343	0	32560	
344	0	32568	
345	0	32584	
346	0	32592	
347	0	32608	
348	0	32624	
349	0	32624	
350	0	32656	
351	0	32680	
352	0	32688	
353	0	32696	
354	0	32696	
355	0	32696	
356	0	32696	
357	0	32688	
358	0	32688	
359	0	32672	
360	0	32680	
361	0	32672	
362	0	32672	
363	0	32672	
364	0	32672	
365	0	32676	
366	0	32672	
367	0	32688	
368	0	32700	
369	0	32712	
370	0	32736	
371	0	32760	
372	0	32784	
373	0	32792	
374	0	32792	
375	0	32792	
376	0	32792	
377	0	32784	
378	0	32792	
379	0	32788	
380	0	32776	
381	0	32776	
382	0	32760	
383	0	32752	
384	0	32744	
385	0	32760	
386	0	32764	
387	0	32784	
388	0	32804	
389	0	32816	
390	0	32808	
391	0	32820	
392	0	32808	
393	0	32808	
394	0	32808	
395	0	32808	
396	0	32824	
397	0	32824	
398	0	32832	
399	0	32832	
400	0	32856	
401	0	32872	
402	0	32884	
403	0	32888	
404	0	32920	
405	0	32952	
406	0	32984	
407	0	33028	
408	0	33076	
409	0	33128	
410	0	33152	
411	0	33160	
412	0	33192	
413	0	33200	
414	0	33196	
415	0	33192	
416	0	33184	
417	0	33168	
418	0	33172	
419	0	33164	
420	0	33160	
421	0	33152	
422	0	33152	
423	0	33160	
424	0	33168	
425	0	33184	
426	0	33184	
427	0	33192	
428	0	33208	
429	0	33224	
430	0	33236	
431	0	33224	
432	0	33216	
433	0	33208	
434	0	33216	
435	0	33208	
436	0	33200	
437	0	33192	
438	0	33200	
439	0	33184	
440	0	33168	
441	0	33152	
442	0	33152	
443	0	33152	
444	0	33156	
445	0	33120	
446	0	33088	
447	0	33080	
448	0	33088	
449	0	33072	
450	0	33072	
451	0	33096	
452	0	33104	
453	0	33108	
454	0	33088	
455	0	33100	
456	0	33096	
457	0	33096	
458	0	33100	
459	0	33088	
460	0	33096	
461	0	33088	
462	0	33088	
463	0	33080	
464	0	33080	
465	0	33084	
466	0	33096	
467	0	33120	
468	0	33140	
469	0	33160	
470	0	33184	
471	0	33176	
472	0	33184	
473	0	33164	
474	0	33160	
475	0	33148	
476	0	33144	
477	0	33144	
478	0	33120	
479	0	33096	
480	0	33080	
481	0	33064	
482	0	33072	
483	0	33080	
484	0	33088	
485	0	33056	
486	0	33068	
487	0	33048	
488	0	33072	
489	0	33064	
490	0	33072	
491	0	33096	
492	0	33088	
493	0	33084	
494	0	33064	
495	0	33064	
496	0	33048	
497	0	33024	
498	0	33000	
499	0	32992	
500	0	32976	
501	0	32968	
502	0	32968	
503	0	32976	
504	0	32988	
505	0	33008	
506	0	33008	
507	0	33024	
508	0	33032	
509	0	33024	
510	0	33032	
511	0	33040	
512	0	33048	
513	0	33056	
514	0	33036	
515	0	33024	
516	0	33000	
517	0	32972	
518	0	32940	
519	0	32888	
520	0	32824	
521	0	32760	
522	0	32696	
523	0	32616	
524	0	32536	
525	0	32424	
526	0	32312	
527	0	32200	
528	0	32064	
529	0	31952	
530	0	31912	
531	0	31912	
532	0	31936	
533	0	31996	
534	0	32032	
535	0	32064	
536	0	32096	
537	0	32112	
538	0	32136	
539	0	32240	
540	0	32412	
541	0	32640	
542	0	32968	
543	0	33320	
544	0	33768	
545	0	34344	
546	0	34992	
547	0	35744	
548	0	36568	
549	0	37464	
550	0	38376	
551	0	39344	
552	0	40312	
553	0	41216	
554	0	42056	
555	0	42904	
556	0	43712	
557	0	44456	
558	0	45080	
559	0	45584	
560	0	45896	
561	0	45992	
562	0	45900	
563	0	45624	
564	0	45160	
565	0	44640	
566	0	44024	
567	0	43328	
568	0	42576	
569	0	41760	
570	0	40952	
571	0	40104	
572	0	39232	
573	0	38368	
574	0	37568	
575	0	36840	
576	0	36268	
577	0	35768	
578	0	35372	
579	0	35072	
580	0	34808	
581	0	34616	
582	0	34400	
583	0	34192	
584	0	34008	
585	0	33824	
586	0	33640	
587	0	33448	
588	0	33264	
589	0	33088	
590	0	32920	
591	0	32752	
592	0	32612	
593	0	32464	
594	0	32344	
595	0	32248	
596	0	32168	
597	0	32104	
598	0	32064	
599	0	32016	
600	0	31968	
601	0	31912	
602	0	31868	
603	0	31856	
604	0	31852	
605	0	31856	
606	0	31852	
607	0	31856	
608	0	31856	
609	0	31848	
610	0	31848	
611	0	31840	
612	0	31848	
613	0	31848	
614	0	31832	
615	0	31840	
616	0	31824	
617	0	31808	
618	0	31784	
619	0	31764	
620	0	31744	
621	0	31752	
622	0	31756	
623	0	31760	
624	0	31776	
625	0	31800	
626	0	31824	
627	0	31840	
628	0	31856	
629	0	31872	
630	0	31880	
631	0	31888	
632	0	31900	
633	0	31920	
634	0	31944	
635	0	31952	
636	0	31944	
637	0	31944	
638	0	31944	
639	0	31936	
640	0	31932	
641	0	31928	
642	0	31936	
643	0	31936	
644	0	31948	
645	0	31968	
646	0	31984	
647	0	32004	
648	0	32016	
649	0	32024	
650	0	32048	
651	0	32072	
652	0	32080	
653	0	32088	
654	0	32080	
655	0	32068	
656	0	32064	
657	0	32072	
658	0	32064	
659	0	32064	
660	0	32084	
661	0	32072	
662	0	32064	
663	0	32056	
664	0	32064	
665	0	32096	
666	0	32108	
667	0	32128	
668	0	32136	
669	0	32144	
670	0	32168	
671	0	32192	
672	0	32220	
673	0	32232	
674	0	32236	
675	0	32232	
676	0	32208	
677	0	32216	
678	0	32232	
679	0	32232	
680	0	32232	
681	0	32248	
682	0	32248	
683	0	32252	
684	0	32240	
685	0	32240	
686	0	32264	
687	0	32288	
688	0	32304	
689	0	32344	
690	0	32384	
691	0	32404	
692	0	32428	
693	0	32428	
694	0	32408	
695	0	32412	
696	0	32428	
697	0	32432	
698	0	32442	
699	0	32440	
700	0	32432	
701	0	32428	
702	0	32408	
703	0	32416	
704	0	32432	
705	0	32432	
706	0	32448	
707	0	32456	
708	0	32456	
709	0	32464	
710	0	32480	
711	0	32480	
712	0	32496	
713	0	32496	
714	0	32496	
715	0	32488	
716	0	32468	
717	0	32472	
718	0	32464	
719	0	32448	
720	0	32424	
721	0	32416	
722	0	32408	
723	0	32408	
724	0	32424	
725	0	32452	
726	0	32464	
727	0	32488	
728	0	32508	
729	0	32520	
730	0	32536	
731	0	32544	
732	0	32564	
733	0	32568	
734	0	32584	
735	0	32592	
736	0	32600	
737	0	32584	
738	0	32600	
739	0	32600	
740	0	32600	
741	0	32608	
742	0	32632	
743	0	32640	
744	0	32648	
745	0	32664	
746	0	32692	
747	0	32720	
748	0	32740	
749	0	32752	
750	0	32780	
751	0	32796	
752	0	32840	
753	0	32860	
754	0	32880	
755	0	32892	
756	0	32888	
757	0	32888	
758	0	32880	
759	0	32888	
760	0	32900	
761	0	32912	
762	0	32920	
763	0	32936	
764	0	32960	
765	0	32964	
766	0	33000	
767	0	33008	
768	0	33016	
769	0	33040	
770	0	33056	
771	0	33072	
772	0	33064	
773	0	33056	
774	0	33060	
775	0	33048	
776	0	33040	
777	0	33044	
778	0	33036	
779	0	33016	
780	0	32992	
781	0	32976	
782	0	33008	
783	0	33016	
784	0	33024	
785	0	33044	
786	0	33056	
787	0	33064	
788	0	33080	
789	0	33112	
790	0	33104	
791	0	33096	
792	0	33096	
793	0	33104	
794	0	33088	
795	0	33080	
796	0	33056	
797	0	33040	
798	0	33016	
799	0	32976	
800	0	32944	
801	0	32920	
802	0	32888	
803	0	32864	
804	0	32840	
805	0	32832	
806	0	32804	
807	0	32776	
808	0	32784	
809	0	32776	
810	0	32776	
811	0	32764	
812	0	32760	
813	0	32736	
814	0	32712	
815	0	32672	
816	0	32652	
817	0	32616	
818	0	32600	
819	0	32576	
820	0	32552	
821	0	32528	
822	0	32496	
823	0	32468	
824	0	32456	
825	0	32464	
826	0	32472	
827	0	32496	
828	0	32496	
829	0	32488	
830	0	32480	
831	0	32468	
832	0	32448	
833	0	32448	
834	0	32436	
835	0	32424	
836	0	32416	
837	0	32392	
838	0	32376	
839	0	32364	
840	0	32340	
841	0	32348	
842	0	32364	
843	0	32344	
844	0	32344	
845	0	32352	
846	0	32368	
847	0	32368	
848	0	32392	
849	0	32408	
850	0	32424	
851	0	32440	
852	0	32456	
853	0	32460	
854	0	32480	
855	0	32504	
856	0	32496	
857	0	32504	
858	0	32496	
859	0	32492	
860	0	32480	
861	0	32468	
862	0	32472	
863	0	32480	
864	0	32480	
865	0	32496	
866	0	32512	
867	0	32528	
868	0	32536	
869	0	32536	
870	0	32544	
871	0	32560	
872	0	32544	
873	0	32540	
874	0	32528	
875	0	32528	
876	0	32528	
877	0	32552	
878	0	32544	
879	0	32548	
880	0	32556	
881	0	32568	
882	0	32592	
883	0	32616	
884	0	32632	
885	0	32664	
886	0	32664	
887	0	32696	
888	0	32736	
889	0	32764	
890	0	32792	
891	0	32800	
892	0	32808	
893	0	32824	
894	0	32808	
895	0	32808	
896	0	32800	
897	0	32776	
898	0	32752	
899	0	32744	
900	0	32720	
901	0	32728	
902	0	32728	
903	0	32744	
904	0	32768	
905	0	32784	
906	0	32800	
907	0	32808	
908	0	32816	
909	0	32824	
910	0	32840	
911	0	32848	
912	0	32864	
913	0	32888	
914	0	32908	
915	0	32928	
916	0	32944	
917	0	32944	
918	0	32960	
919	0	32944	
920	0	32940	
921	0	32928	
922	0	32928	
923	0	32928	
924	0	32936	
925	0	32960	
926	0	32968	
927	0	32984	
928	0	33016	
929	0	33040	
930	0	33048	
931	0	33060	
932	0	33080	
933	0	33068	
934	0	33080	
935	0	33080	
936	0	33080	
937	0	33088	
938	0	33080	
939	0	33064	
940	0	33056	
941	0	33080	
942	0	33096	
943	0	33128	
944	0	33160	
945	0	33192	
946	0	33216	
947	0	33248	
948	0	33280	
949	0	33324	
950	0	33360	
951	0	33400	
952	0	33448	
953	0	33472	
954	0	33472	
955	0	33472	
956	0	33496	
957	0	33480	
958	0	33464	
959	0	33480	
960	0	33480	
961	0	33504	
962	0	33512	
963	0	33536	
964	0	33544	
965	0	33564	
966	0	33568	
967	0	33600	
968	0	33660	
969	0	33704	
970	0	33728	
971	0	33752	
972	0	33772	
973	0	33808	
974	0	33812	
975	0	33816	
976	0	33808	
977	0	33800	
978	0	33784	
979	0	33776	
980	0	33752	
981	0	33736	
982	0	33720	
983	0	33736	
984	0	33744	
985	0	33768	
986	0	33800	
987	0	33824	
988	0	33832	
989	0	33824	
990	0	33808	
991	0	33808	
992	0	33804	
993	0	33808	
994	0	33800	
995	0	33792	
996	0	33752	
997	0	33752	
998	0	33720	
999	0	33712	
1000	0	33688	
1001	0	33672	
1002	0	33640	
1003	0	33624	
1004	0	33620	
1005	0	33624	
1006	0	33612	
1007	0	33608	
1008	0	33616	
1009	0	33648	
1010	0	33672	
1011	0	33696	
1012	0	33720	
1013	0	33736	
1014	0	33736	
1015	0	33776	
1016	0	33812	
1017	0	33808	
1018	0	33776	
1019	0	33760	
1020	0	33752	
1021	0	33760	
1022	0	33748	
1023	0	33752	
1024	0	33752	
1025	0	33728	
1026	0	33704	
1027	0	33696	
1028	0	33704	
1029	0	33712	
1030	0	33744	
1031	0	33784	
1032	0	33832	
1033	0	33864	
1034	0	33880	
1035	0	33896	
1036	0	33884	
1037	0	33872	
1038	0	33880	
1039	0	33880	
1040	0	33888	
1041	0	33888	
1042	0	33880	
1043	0	33868	
1044	0	33840	
1045	0	33840	
1046	0	33856	
1047	0	33864	
1048	0	33872	
1049	0	33888	
1050	0	33896	
1051	0	33904	
1052	0	33896	
1053	0	33888	
1054	0	33872	
1055	0	33828	
1056	0	33808	
1057	0	33804	
1058	0	33776	
1059	0	33768	
1060	0	33764	
1061	0	33752	
1062	0	33768	
1063	0	33816	
1064	0	33832	
1065	0	33872	
1066	0	33912	
1067	0	33952	
1068	0	33968	
1069	0	33976	
1070	0	33984	
1071	0	33960	
1072	0	33952	
1073	0	33944	
1074	0	33944	
1075	0	33916	
1076	0	33904	
1077	0	33888	
1078	0	33856	
1079	0	33840	
1080	0	33816	
1081	0	33800	
1082	0	33784	
1083	0	33768	
1084	0	33776	
1085	0	33816	
1086	0	33840	
1087	0	33856	
1088	0	33872	
1089	0	33896	
1090	0	33904	
1091	0	33928	
1092	0	33916	
1093	0	33896	
1094	0	33880	
1095	0	33864	
1096	0	33840	
1097	0	33812	
1098	0	33776	
1099	0	33752	
1100	0	33728	
1101	0	33696	
1102	0	33664	
1103	0	33648	
1104	0	33632	
1105	0	33640	
1106	0	33652	
1107	0	33664	
1108	0	33672	
1109	0	33696	
1110	0	33688	
1111	0	33672	
1112	0	33656	
1113	0	33644	
1114	0	33636	
1115	0	33600	
1116	0	33588	
1117	0	33568	
1118	0	33552	
1119	0	33528	
1120	0	33512	
1121	0	33512	
1122	0	33480	
1123	0	33440	
1124	0	33416	
1125	0	33392	
1126	0	33384	
1127	0	33376	
1128	0	33376	
1129	0	33368	
1130	0	33376	
1131	0	33352	
1132	0	33320	
1133	0	33272	
1134	0	33224	
1135	0	33176	
1136	0	33132	
1137	0	33104	
1138	0	33064	
1139	0	33048	
1140	0	33016	
1141	0	32992	
1142	0	32976	
1143	0	32952	
1144	0	32928	
1145	0	32904	
1146	0	32880	
1147	0	32844	
1148	0	32816	
1149	0	32800	
1150	0	32792	
1151	0	32768	
1152	0	32744	
1153	0	32736	
1154	0	32716	
1155	0	32696	
1156	0	32672	
1157	0	32624	
1158	0	32588	
1159	0	32544	
1160	0	32520	
1161	0	32488	
1162	0	32472	
1163	0	32476	
1164	0	32448	
1165	0	32456	
1166	0	32456	
1167	0	32488	
1168	0	32504	
1169	0	32528	
1170	0	32548	
1171	0	32568	
1172	0	32576	
1173	0	32556	
1174	0	32532	
1175	0	32520	
1176	0	32504	
1177	0	32492	
1178	0	32472	
1179	0	32456	
1180	0	32420	
1181	0	32396	
1182	0	32376	
1183	0	32384	
1184	0	32368	
1185	0	32384	
1186	0	32404	
1187	0	32408	
1188	0	32424	
1189	0	32436	
1190	0	32448	
1191	0	32456	
1192	0	32440	
1193	0	32468	
1194	0	32488	
1195	0	32512	
1196	0	32512	
1197	0	32520	
1198	0	32548	
1199	0	32576	
1200	0	32584	
1201	0	32584	
1202	0	32568	
1203	0	32536	
1204	0	32516	
1205	0	32496	
1206	0	32464	
1207	0	32448	
1208	0	32416	
1209	0	32408	
1210	0	32416	
1211	0	32424	
1212	0	32388	
1213	0	32376	
1214	0	32360	
1215	0	32352	
1216	0	32348	
1217	0	32312	
1218	0	32284	
1219	0	32288	
1220	0	32284	
1221	0	32272	
1222	0	32288	
1223	0	32280	
1224	0	32280	
1225	0	32264	
1226	0	32264	
1227	0	32240	
1228	0	32232	
1229	0	32200	
1230	0	32176	
1231	0	32144	
1232	0	32080	
1233	0	32032	
1234	0	31968	
1235	0	31920	
1236	0	31872	
1237	0	31820	
1238	0	31744	
1239	0	31696	
1240	0	31636	
1241	0	31568	
1242	0	31544	
1243	0	31528	
1244	0	31528	
1245	0	31520	
1246	0	31512	
1247	0	31472	
1248	0	31440	
1249	0	31432	
1250	0	31432	
1251	0	31424	
1252	0	31392	
1253	0	31356	
1254	0	31328	
1255	0	31272	
1256	0	31244	
1257	0	31200	
1258	0	31128	
1259	0	31064	
1260	0	31016	
1261	0	30976	
1262	0	30928	
1263	0	30880	
1264	0	30864	
1265	0	30848	
1266	0	30832	
1267	0	30804	
1268	0	30792	
1269	0	30776	
1270	0	30752	
1271	0	30728	
1272	0	30704	
1273	0	30688	
1274	0	30664	
1275	0	30620	
1276	0	30584	
1277	0	30536	
1278	0	30464	
1279	0	30384	
1280	0	30304	
1281	0	30208	
1282	0	30136	
1283	0	30048	
1284	0	29928	
1285	0	29800	
1286	0	29672	
1287	0	29560	
1288	0	29500	
1289	0	29472	
1290	0	29488	
1291	0	29520	
1292	0	29568	
1293	0	29612	
1294	0	29640	
1295	0	29660	
1296	0	29684	
1297	0	29752	
1298	0	29872	
1299	0	30064	
1300	0	30312	
1301	0	30608	
1302	0	30960	
1303	0	31424	
1304	0	32008	
1305	0	32672	
1306	0	33432	
1307	0	34256	
1308	0	35088	
1309	0	35960	
1310	0	36856	
1311	0	37752	
1312	0	38592	
1313	0	39464	
1314	0	40296	
1315	0	41064	
1316	0	41752	
1317	0	42392	
1318	0	42864	
1319	0	43136	
1320	0	43208	
1321	0	43104	
1322	0	42816	
1323	0	42376	
1324	0	41888	
1325	0	41336	
1326	0	40728	
1327	0	40016	
1328	0	39264	
1329	0	38496	
1330	0	37672	
1331	0	36852	
1332	0	36056	
1333	0	35320	
1334	0	34648	
1335	0	34112	
1336	0	33672	
1337	0	33336	
1338	0	33048	
1339	0	32808	
1340	0	32632	
1341	0	32480	
1342	0	32344	
1343	0	32208	
1344	0	32088	
1345	0	31952	
1346	0	31832	
1347	0	31672	
1348	0	31544	
1349	0	31416	
1350	0	31304	
1351	0	31208	
1352	0	31128	
1353	0	31064	
1354	0	31000	
1355	0	30960	
1356	0	30928	
1357	0	30896	
1358	0	30888	
1359	0	30860	
1360	0	30860	
1361	0	30848	
1362	0	30848	
1363	0	30872	
1364	0	30896	
1365	0	30936	
1366	0	30960	
1367	0	30992	
1368	0	31008	
1369	0	31012	
1370	0	31000	
1371	0	31008	
1372	0	31012	
1373	0	31020	
1374	0	31032	
1375	0	31040	
1376	0	31052	
1377	0	31064	
1378	0	31080	
1379	0	31072	
1380	0	31080	
1381	0	31080	
1382	0	31088	
1383	0	31120	
1384	0	31140	
1385	0	31176	
1386	0	31204	
1387	0	31224	
1388	0	31276	
1389	0	31336	
1390	0	31384	
1391	0	31432	
1392	0	31464	
1393	0	31488	
1394	0	31504	
1395	0	31536	
1396	0	31544	
1397	0	31556	
1398	0	31552	
1399	0	31544	
1400	0	31544	
1401	0	31544	
1402	0	31552	
1403	0	31556	
1404	0	31584	
1405	0	31612	
1406	0	31648	
1407	0	31672	
1408	0	31716	
1409	0	31768	
1410	0	31788	
1411	0	31808	
1412	0	31824	
1413	0	31824	
1414	0	31828	
1415	0	31836	
1416	0	31848	
1417	0	31840	
1418	0	31824	
1419	0	31800	
1420	0	31800	
1421	0	31784	
1422	0	31784	
1423	0	31768	
1424	0	31792	
1425	0	31784	
1426	0	31804	
1427	0	31832	
1428	0	31840	
1429	0	31864	
1430	0	31876	
1431	0	31896	
1432	0	31936	
1433	0	31952	
1434	0	31996	
1435	0	31992	
1436	0	32016	
1437	0	32048	
1438	0	32072	
1439	0	32096	
1440	0	32128	
1441	0	32112	
1442	0	32112	
1443	0	32112	
1444	0	32128	
1445	0	32152	
1446	0	32156	
1447	0	32168	
1448	0	32180	
1449	0	32192	
1450	0	32224	
1451	0	32256	
1452	0	32288	
1453	0	32312	
1454	0	32320	
1455	0	32320	
1456	0	32328	
1457	0	32332	
1458	0	32328	
1459	0	32328	
1460	0	32348	
1461	0	32352	
1462	0	32360	
1463	0	32368	
1464	0	32384	
1465	0	32440	
1466	0	32472	
1467	0	32520	
1468	0	32544	
1469	0	32580	
1470	0	32608	
1471	0	32652	
1472	0	32656	
1473	0	32664	
1474	0	32636	
1475	0	32616	
1476	0	32600	
1477	0	32576	
1478	0	32548	
1479	0	32520	
1480	0	32512	
1481	0	32504	
1482	0	32520	
1483	0	32528	
1484	0	32552	
1485	0	32576	
1486	0	32616	
1487	0	32648	
1488	0	32680	
1489	0	32732	
1490	0	32768	
1491	0	32824	
1492	0	32864	
1493	0	32904	
1494	0	32928	
1495	0	32936	
1496	0	32936	
1497	0	32972	
1498	0	33004	
1499	0	33012	
1500	0	33016	
1501	0	33024	
1502	0	33008	
1503	0	33016	
1504	0	33032	
1505	0	33072	
1506	0	33088	
1507	0	33120	
1508	0	33176	
1509	0	33216	
1510	0	33240	
1511	0	33264	
1512	0	33288	
1513	0	33304	
1514	0	33312	
1515	0	33312	
1516	0	33288	
1517	0	33288	
1518	0	33280	
1519	0	33296	
1520	0	33312	
1521	0	33312	
1522	0	33344	
1523	0	33364	
1524	0	33392	
1525	0	33440	
1526	0	33480	
1527	0	33512	
1528	0	33544	
1529	0	33576	
1530	0	33608	
1531	0	33632	
1532	0	33664	
1533	0	33672	
1534	0	33680	
1535	0	33680	
1536	0	33688	
1537	0	33696	
1538	0	33692	
1539	0	33680	
1540	0	33688	
1541	0	33692	
1542	0	33672	
1543	0	33676	
1544	0	33688	
1545	0	33712	
1546	0	33712	
1547	0	33728	
1548	0	33752	
1549	0	33760	
1550	0	33776	
1551	0	33768	
1552	0	33776	
1553	0	33768	
1554	0	33744	
1555	0	33704	
1556	0	33680	
1557	0	33640	
1558	0	33600	
1559	0	33584	
1560	0	33528	
1561	0	33520	
1562	0	33500	
1563	0	33472	
1564	0	33440	
1565	0	33428	
1566	0	33400	
1567	0	33392	
1568	0	33392	
1569	0	33392	
1570	0	33380	
1571	0	33376	
1572	0	33344	
1573	0	33308	
1574	0	33256	
1575	0	33216	
1576	0	33176	
1577	0	33136	
1578	0	33096	
1579	0	33032	
1580	0	33000	
1581	0	32976	
1582	0	32952	
1583	0	32912	
1584	0	32880	
1585	0	32848	
1586	0	32824	
1587	0	32816	
1588	0	32792	
1589	0	32768	
1590	0	32736	
1591	0	32728	
1592	0	32704	
1593	0	32676	
1594	0	32672	
1595	0	32664	
1596	0	32656	
1597	0	32640	
1598	0	32624	
1599	0	32600	
1600	0	32584	
1601	0	32568	
1602	0	32536	
1603	0	32520	
1604	0	32504	
1605	0	32496	
1606	0	32520	
1607	0	32512	
1608	0	32512	
1609	0	32520	
1610	0	32536	
1611	0	32532	
1612	0	32536	
1613	0	32528	
1614	0	32536	
1615	0	32536	
1616	0	32552	
1617	0	32552	
1618	0	32552	
1619	0	32552	
1620	0	32548	
1621	0	32540	
1622	0	32552	
1623	0	32560	
1624	0	32576	
1625	0	32600	
1626	0	32640	
1627	0	32672	
1628	0	32716	
1629	0	32760	
1630	0	32804	
1631	0	32840	
1632	0	32872	
1633	0	32912	
1634	0	32944	
1635	0	32960	
1636	0	32976	
1637	0	32992	
1638	0	32992	
1639	0	32984	
1640	0	32960	
1641	0	32952	
1642	0	32944	
1643	0	32956	
1644	0	32960	
1645	0	32944	
1646	0	32968	
1647	0	32976	
1648	0	32984	
1649	0	33032	
1650	0	33048	
1651	0	33076	
1652	0	33116	
1653	0	33152	
1654	0	33200	
1655	0	33216	
1656	0	33224	
1657	0	33216	
1658	0	33196	
1659	0	33184	
1660	0	33176	
1661	0	33192	
1662	0	33184	
1663	0	33184	
1664	0	33192	
1665	0	33192	
1666	0	33208	
1667	0	33200	
1668	0	33216	
1669	0	33216	
1670	0	33208	
1671	0	33208	
1672	0	33188	
1673	0	33160	
1674	0	33136	
1675	0	33096	
1676	0	33056	
1677	0	33056	
1678	0	33040	
1679	0	33024	
1680	0	33000	
1681	0	32968	
1682	0	32944	
1683	0	32928	
1684	0	32920	
1685	0	32912	
1686	0	32900	
1687	0	32912	
1688	0	32912	
1689	0	32912	
1690	0	32928	
1691	0	32952	
1692	0	32960	
1693	0	32952	
1694	0	32936	
1695	0	32928	
1696	0	32896	
1697	0	32872	
1698	0	32856	
1699	0	32840	
1700	0	32828	
1701	0	32792	
1702	0	32792	
1703	0	32760	
1704	0	32672	
1705	0	32616	
1706	0	32560	
1707	0	32528	
1708	0	32536	
1709	0	32528	
1710	0	32568	
1711	0	32608	
1712	0	32632	
1713	0	32656	
1714	0	32664	
1715	0	32672	
1716	0	32664	
1717	0	32664	
1718	0	32672	
1719	0	32680	
1720	0	32664	
1721	0	32680	
1722	0	32680	
1723	0	32680	
1724	0	32672	
1725	0	32688	
1726	0	32680	
1727	0	32700	
1728	0	32712	
1729	0	32720	
1730	0	32712	
1731	0	32720	
1732	0	32728	
1733	0	32712	
1734	0	32688	
1735	0	32664	
1736	0	32636	
1737	0	32600	
1738	0	32592	
1739	0	32576	
1740	0	32544	
1741	0	32548	
1742	0	32536	
1743	0	32540	
1744	0	32552	
1745	0	32560	
1746	0	32568	
1747	0	32600	
1748	0	32624	
1749	0	32648	
1750	0	32672	
1751	0	32708	
1752	0	32728	
1753	0	32736	
1754	0	32720	
1755	0	32696	
1756	0	32672	
1757	0	32640	
1758	0	32616	
1759	0	32616	
1760	0	32620	
1761	0	32624	
1762	0	32608	
1763	0	32592	
1764	0	32576	
1765	0	32552	
1766	0	32532	
1767	0	32528	
1768	0	32536	
1769	0	32552	
1770	0	32576	
1771	0	32592	
1772	0	32608	
1773	0	32616	
1774	0	32632	
1775	0	32608	
1776	0	32616	
1777	0	32592	
1778	0	32568	
1779	0	32528	
1780	0	32512	
1781	0	32488	
1782	0	32488	
1783	0	32496	
1784	0	32496	
1785	0	32492	
1786	0	32504	
1787	0	32512	
1788	0	32536	
1789	0	32544	
1790	0	32552	
1791	0	32560	
1792	0	32564	
1793	0	32572	
1794	0	32592	
1795	0	32592	
1796	0	32600	
1797	0	32576	
1798	0	32560	
1799	0	32528	
1800	0	32524	
1801	0	32500	
1802	0	32468	
1803	0	32456	
1804	0	32448	
1805	0	32424	
1806	0	32424	
1807	0	32448	
1808	0	32448	
1809	0	32464	
1810	0	32448	
1811	0	32432	
1812	0	32400	
1813	0	32376	
1814	0	32360	
1815	0	32352	
1816	0	32344	
1817	0	32328	
1818	0	32328	
1819	0	32308	
1820	0	32304	
1821	0	32296	
1822	0	32312	
1823	0	32320	
1824	0	32316	
1825	0	32312	
1826	0	32320	
1827	0	32328	
1828	0	32344	
1829	0	32353	
1830	0	32348	
1831	0	32356	
1832	0	32332	
1833	0	32304	
1834	0	32288	
1835	0	32248	
1836	0	32200	
1837	0	32176	
1838	0	32144	
1839	0	32120	
1840	0	32112	
1841	0	32088	
1842	0	32080	
1843	0	32064	
1844	0	32072	
1845	0	32088	
1846	0	32112	
1847	0	32148	
1848	0	32176	
1849	0	32200	
1850	0	32236	
1851	0	32256	
1852	0	32272	
1853	0	32304	
1854	0	32304	
1855	0	32280	
1856	0	32240	
1857	0	32200	
1858	0	32160	
1859	0	32144	
1860	0	32144	
1861	0	32132	
1862	0	32104	
1863	0	32076	
1864	0	32080	
1865	0	32096	
1866	0	32120	
1867	0	32152	
1868	0	32160	
1869	0	32160	
1870	0	32176	
1871	0	32184	
1872	0	32204	
1873	0	32216	
1874	0	32232	
1875	0	32232	
1876	0	32232	
1877	0	32216	
1878	0	32224	
1879	0	32216	
1880	0	32204	
1881	0	32200	
1882	0	32192	
1883	0	32232	
1884	0	32276	
1885	0	32304	
1886	0	32344	
1887	0	32352	
1888	0	32376	
1889	0	32408	
1890	0	32432	
1891	0	32452	
1892	0	32488	
1893	0	32528	
1894	0	32556	
1895	0	32584	
1896	0	32596	
1897	0	32616	
1898	0	32624	
1899	0	32620	
1900	0	32632	
1901	0	32640	
1902	0	32640	
1903	0	32664	
1904	0	32680	
1905	0	32708	
1906	0	32736	
1907	0	32768	
1908	0	32800	
1909	0	32832	
1910	0	32848	
1911	0	32872	
1912	0	32888	
1913	0	32912	
1914	0	32920	
1915	0	32920	
1916	0	32928	
1917	0	32904	
1918	0	32888	
1919	0	32864	
1920	0	32848	
1921	0	32816	
1922	0	32816	
1923	0	32800	
1924	0	32808	
1925	0	32824	
1926	0	32840	
1927	0	32856	
1928	0	32848	
1929	0	32840	
1930	0	32840	
1931	0	32840	
1932	0	32832	
1933	0	32808	
1934	0	32792	
1935	0	32776	
1936	0	32776	
1937	0	32792	
1938	0	32800	
1939	0	32784	
1940	0	32756	
1941	0	32728	
1942	0	32720	
1943	0	32724	
1944	0	32704	
1945	0	32704	
1946	0	32684	
1947	0	32680	
1948	0	32696	
1949	0	32704	
1950	0	32688	
1951	0	32660	
1952	0	32648	
1953	0	32632	
1954	0	32600	
1955	0	32560	
1956	0	32536	
1957	0	32520	
1958	0	32512	
1959	0	32496	
1960	0	32456	
1961	0	32428	
1962	0	32416	
1963	0	32416	
1964	0	32408	
1965	0	32408	
1966	0	32432	
1967	0	32448	
1968	0	32480	
1969	0	32488	
1970	0	32496	
1971	0	32504	
1972	0	32512	
1973	0	32516	
1974	0	32512	
1975	0	32504	
1976	0	32480	
1977	0	32472	
1978	0	32464	
1979	0	32456	
1980	0	32424	
1981	0	32392	
1982	0	32368	
1983	0	32356	
1984	0	32336	
1985	0	32320	
1986	0	32320	
1987	0	32320	
1988	0	32328	
1989	0	32320	
1990	0	32312	
1991	0	32314	
1992	0	32296	
1993	0	32304	
1994	0	32296	
1995	0	32280	
1996	0	32272	
1997	0	32296	
1998	0	32300	
1999	0	32304	
2000	0	32272	
2001	0	32248	
2002	0	32208	
2003	0	32184	
2004	0	32152	
2005	0	32120	
2006	0	32072	
2007	0	32016	
2008	0	31936	
2009	0	31872	
2010	0	31816	
2011	0	31720	
2012	0	31616	
2013	0	31496	
2014	0	31376	
2015	0	31264	
2016	0	31192	
2017	0	31176	
2018	0	31184	
2019	0	31212	
2020	0	31228	
2021	0	31252	
2022	0	31264	
2023	0	31304	
2024	0	31336	
2025	0	31408	
2026	0	31536	
2027	0	31732	
2028	0	31984	
2029	0	32312	
2030	0	32680	
2031	0	33128	
2032	0	33676	
2033	0	34312	
2034	0	35024	
2035	0	35800	
2036	0	36584	
2037	0	37432	
2038	0	38304	
2039	0	39116	
2040	0	39856	
2041	0	40632	
2042	0	41216	
2043	0	41624	
2044	0	42032	
2045	0	42456	
2046	0	42784	
2047	0	42992	
2048	0	43036	
2049	0	42912	
2050	0	42624	
2051	0	42232	
2052	0	41776	
2053	0	41248	
2054	0	40656	
2055	0	39992	
2056	0	39272	
2057	0	38512	
2058	0	37728	
2059	0	36944	
2060	0	36160	
2061	0	35464	
2062	0	34864	
2063	0	34360	
2064	0	33960	
2065	0	33648	
2066	0	33424	
2067	0	33256	
2068	0	33096	
2069	0	32960	
2070	0	32824	
2071	0	32680	
2072	0	32528	
2073	0	32336	
2074	0	32140	
2075	0	31960	
2076	0	31752	
2077	0	31568	
2078	0	31384	
2079	0	31232	
2080	0	31106	
2081	0	31020	
2082	0	30960	
2083	0	30900	
2084	0	30848	
2085	0	30824	
2086	0	30816	
2087	0	30816	
2088	0	30832	
2089	0	30864	
2090	0	30864	
2091	0	30880	
2092	0	30880	
2093	0	30912	
2094	0	30924	
2095	0	30920	
2096	0	30936	
2097	0	30952	
2098	0	30960	
2099	0	30968	
2100	0	30960	
2101	0	30968	
2102	0	30980	
2103	0	31000	
2104	0	31000	
2105	0	31024	
2106	0	31040	
2107	0	31064	
2108	0	31072	
2109	0	31080	
2110	0	31096	
2111	0	31096	
2112	0	31088	
2113	0	31080	
2114	0	31072	
2115	0	31064	
2116	0	31064	
2117	0	31056	
2118	0	31032	
2119	0	31028	
2120	0	31008	
2121	0	31000	
2122	0	31000	
2123	0	31004	
2124	0	31016	
2125	0	31040	
2126	0	31080	
2127	0	31112	
2128	0	31136	
2129	0	31176	
2130	0	31224	
2131	0	31256	
2132	0	31296	
2133	0	31336	
2134	0	31344	
2135	0	31360	
2136	0	31352	
2137	0	31360	
2138	0	31352	
2139	0	31328	
2140	0	31320	
2141	0	31320	
2142	0	31320	
2143	0	31312	
2144	0	31336	
2145	0	31368	
2146	0	31376	
2147	0	31392	
2148	0	31412	
2149	0	31416	
2150	0	31440	
2151	0	31464	
2152	0	31480	
2153	0	31492	
2154	0	31504	
2155	0	31536	
2156	0	31544	
2157	0	31560	
2158	0	31584	
2159	0	31596	
2160	0	31592	
2161	0	31600	
2162	0	31616	
2163	0	31652	
2164	0	31688	
2165	0	31712	
2166	0	31752	
2167	0	31784	
2168	0	31808	
2169	0	31832	
2170	0	31868	
2171	0	31904	
2172	0	31936	
2173	0	31964	
2174	0	31956	
2175	0	31960	
2176	0	31968	
2177	0	32000	
2178	0	32016	
2179	0	32016	
2180	0	32056	
2181	0	32088	
2182	0	32108	
2183	0	32124	
2184	0	32152	
2185	0	32192	
2186	0	32216	
2187	0	32224	
2188	0	32252	
2189	0	32276	
2190	0	32304	
2191	0	32328	
2192	0	32376	
2193	0	32416	
2194	0	32432	
2195	0	32424	
2196	0	32424	
2197	0	32436	
2198	0	32432	
2199	0	32440	
2200	0	32464	
2201	0	32464	
2202	0	32472	
2203	0	32464	
2204	0	32488	
2205	0	32504	
2206	0	32520	
2207	0	32536	
2208	0	32544	
2209	0	32576	
2210	0	32600	
2211	0	32632	
2212	0	32648	
2213	0	32672	
2214	0	32688	
2215	0	32720	
2216	0	32728	
2217	0	32732	
2218	0	32744	
2219	0	32736	
2220	0	32744	
2221	0	32744	
2222	0	32744	
2223	0	32760	
2224	0	32760	
2225	0	32780	
2226	0	32812	
2227	0	32840	
2228	0	32864	
2229	0	32892	
2230	0	32920	
2231	0	32952	
2232	0	32968	
2233	0	33000	
2234	0	33024	
2235	0	33032	
2236	0	33048	
2237	0	33072	
2238	0	33080	
2239	0	33072	
2240	0	33096	
2241	0	33104	
2242	0	33112	
2243	0	33120	
2244	0	33120	
2245	0	33132	
2246	0	33164	
2247	0	33176	
2248	0	33184	
2249	0	33216	
2250	0	33232	
2251	0	33248	
2252	0	33256	
2253	0	33256	
2254	0	33240	
2255	0	33248	
2256	0	33240	
2257	0	33240	
2258	0	33248	
2259	0	33240	
2260	0	33216	
2261	0	33220	
2262	0	33216	
2263	0	33224	
2264	0	33240	
2265	0	33232	
2266	0	33240	
2267	0	33240	
2268	0	33260	
2269	0	33268	
2270	0	33288	
2271	0	33296	
2272	0	33312	
2273	0	33336	
2274	0	33360	
2275	0	33376	
2276	0	33384	
2277	0	33392	
2278	0	33368	
2279	0	33352	
2280	0	33344	
2281	0	33312	
2282	0	33304	
2283	0	33308	
2284	0	33296	
2285	0	33288	
2286	0	33280	
2287	0	33248	
2288	0	33212	
2289	0	33176	
2290	0	33160	
2291	0	33128	
2292	0	33080	
2293	0	33048	
2294	0	33016	
2295	0	32984	
2296	0	32960	
2297	0	32920	
2298	0	32896	
2299	0	32844	
2300	0	32808	
2301	0	32792	
2302	0	32792	
2303	0	32760	
2304	0	32752	
2305	0	32760	
2306	0	32776	
2307	0	32776	
2308	0	32776	
2309	0	32776	
2310	0	32764	
2311	0	32752	
2312	0	32752	
2313	0	32728	
2314	0	32704	
2315	0	32680	
2316	0	32648	
2317	0	32608	
2318	0	32560	
2319	0	32528	
2320	0	32504	
2321	0	32464	
2322	0	32472	
2323	0	32456	
2324	0	32432	
2325	0	32400	
2326	0	32380	
2327	0	32368	
2328	0	32392	
2329	0	32400	
2330	0	32412	
2331	0	32440	
2332	0	32464	
2333	0	32496	
2334	0	32524	
2335	0	32504	
2336	0	32512	
2337	0	32504	
2338	0	32484	
2339	0	32472	
2340	0	32472	
2341	0	32480	
2342	0	32472	
2343	0	32460	
2344	0	32464	
2345	0	32456	
2346	0	32476	
2347	0	32496	
2348	0	32496	
2349	0	32488	
2350	0	32496	
2351	0	32520	
2352	0	32520	
2353	0	32528	
2354	0	32520	
2355	0	32520	
2356	0	32520	
2357	0	32512	
2358	0	32520	
2359	0	32516	
2360	0	32504	
2361	0	32528	
2362	0	32520	
2363	0	32512	
2364	0	32512	
2365	0	32536	
2366	0	32564	
2367	0	32592	
2368	0	32608	
2369	0	32640	
2370	0	32664	
2371	0	32688	
2372	0	32704	
2373	0	32720	
2374	0	32728	
2375	0	32712	
2376	0	32700	
2377	0	32672	
2378	0	32656	
2379	0	32640	
2380	0	32640	
2381	0	32640	
2382	0	32640	
2383	0	32620	
2384	0	32652	
2385	0	32672	
2386	0	32680	
2387	0	32696	
2388	0	32704	
2389	0	32720	
2390	0	32736	
2391	0	32752	
2392	0	32780	
2393	0	32812	
2394	0	32808	
2395	0	32816	
2396	0	32816	
2397	0	32832	
2398	0	32840	
2399	0	32844	
2400	0	32840	
2401	0	32832	
2402	0	32824	
2403	0	32832	
2404	0	32824	
2405	0	32832	
2406	0	32824	
2407	0	32840	
2408	0	32856	
2409	0	32872	
2410	0	32876	
2411	0	32872	
2412	0	32872	
2413	0	32864	
2414	0	32856	
2415	0	32840	
2416	0	32824	
2417	0	32808	
2418	0	32808	
2419	0	32800	
2420	0	32800	
2421	0	32800	
2422	0	32796	
2423	0	32776	
2424	0	32792	
2425	0	32800	
2426	0	32808	
2427	0	32816	
2428	0	32832	
2429	0	32828	
2430	0	32832	
2431	0	32832	
2432	0	32844	
2433	0	32856	
2434	0	32840	
2435	0	32804	
2436	0	32792	
2437	0	32792	
2438	0	32792	
2439	0	32772	
2440	0	32744	
2441	0	32736	
2442	0	32728	
2443	0	32724	
2444	0	32728	
2445	0	32764	
2446	0	32816	
2447	0	32840	
2448	0	32856	
2449	0	32872	
2450	0	32864	
2451	0	32864	
2452	0	32856	
2453	0	32872	
2454	0	32844	
2455	0	32828	
2456	0	32820	
2457	0	32780	
2458	0	32752	
2459	0	32728	
2460	0	32704	
2461	0	32672	
2462	0	32656	
2463	0	32652	
2464	0	32632	
2465	0	32628	
2466	0	32624	
2467	0	32656	
2468	0	32688	
2469	0	32712	
2470	0	32728	
2471	0	32736	
2472	0	32760	
2473	0	32768	
2474	0	32776	
2475	0	32784	
2476	0	32804	
2477	0	32832	
2478	0	32832	
2479	0	32832	
2480	0	32832	
2481	0	32832	
2482	0	32824	
2483	0	32816	
2484	0	32808	
2485	0	32816	
2486	0	32824	
2487	0	32832	
2488	0	32848	
2489	0	32864	
2490	0	32876	
2491	0	32872	
2492	0	32872	
2493	0	32880	
2494	0	32892	
2495	0	32872	
2496	0	32856	
2497	0	32832	
2498	0	32808	
2499	0	32800	
2500	0	32776	
2501	0	32752	
2502	0	32736	
2503	0	32756	
2504	0	32764	
2505	0	32784	
2506	0	32824	
2507	0	32856	
2508	0	32880	
2509	0	32906	
2510	0	32928	
2511	0	32960	
2512	0	32984	
2513	0	32992	
2514	0	32992	
2515	0	32984	
2516	0	32968	
2517	0	32964	
2518	0	32960	
2519	0	32944	
2520	0	32936	
2521	0	32920	
2522	0	32924	
2523	0	32944	
2524	0	32952	
2525	0	32960	
2526	0	32940	
2527	0	32936	
2528	0	32936	
2529	0	32920	
2530	0	32928	
2531	0	32932	
2532	0	32928	
2533	0	32912	
2534	0	32896	
2535	0	32876	
2536	0	32856	
2537	0	32840	
2538	0	32856	
2539	0	32856	
2540	0	32852	
2541	0	32840	
2542	0	32848	
2543	0	32856	
2544	0	32864	
2545	0	32880	
2546	0	32888	
2547	0	32912	
2548	0	32924	
2549	0	32952	
2550	0	32960	
2551	0	32984	
2552	0	32992	
2553	0	32968	
2554	0	32952	
2555	0	32920	
2556	0	32904	
2557	0	32876	
2558	0	32860	
2559	0	32848	
2560	0	32832	
2561	0	32812	
2562	0	32788	
2563	0	32776	
2564	0	32768	
2565	0	32776	
2566	0	32792	
2567	0	32808	
2568	0	32832	
2569	0	32848	
2570	0	32840	
2571	0	32832	
2572	0	32840	
2573	0	32832	
2574	0	32816	
2575	0	32808	
2576	0	32776	
2577	0	32744	
2578	0	32712	
2579	0	32680	
2580	0	32656	
2581	0	32624	
2582	0	32612	
2583	0	32592	
2584	0	32564	
2585	0	32548	
2586	0	32536	
2587	0	32522	
2588	0	32500	
2589	0	32488	
2590	0	32476	
2591	0	32480	
2592	0	32484	
2593	0	32496	
2594	0	32496	
2595	0	32500	
2596	0	32520	
2597	0	32496	
2598	0	32496	
2599	0	32464	
2600	0	32456	
2601	0	32456	
2602	0	32472	
2603	0	32488	
2604	0	32512	
2605	0	32528	
2606	0	32552	
2607	0	32576	
2608	0	32612	
2609	0	32640	
2610	0	32680	
2611	0	32712	
2612	0	32728	
2613	0	32744	
2614	0	32744	
2615	0	32744	
2616	0	32736	
2617	0	32736	
2618	0	32712	
2619	0	32680	
2620	0	32672	
2621	0	32640	
2622	0	32624	
2623	0	32616	
2624	0	32632	
2625	0	32664	
2626	0	32664	
2627	0	32680	
2628	0	32688	
2629	0	32688	
2630	0	32696	
2631	0	32700	
2632	0	32712	
2633	0	32720	
2634	0	32736	
2635	0	32760	
2636	0	32760	
2637	0	32764	
2638	0	32752	
2639	0	32728	
2640	0	32720	
2641	0	32712	
2642	0	32704	
2643	0	32704	
2644	0	32680	
2645	0	32656	
2646	0	32636	
2647	0	32636	
2648	0	32636	
2649	0	32632	
2650	0	32624	
2651	0	32604	
2652	0	32604	
2653	0	32600	
2654	0	32584	
2655	0	32584	
2656	0	32560	
2657	0	32560	
2658	0	32536	
2659	0	32520	
2660	0	32504	
2661	0	32496	
2662	0	32488	
2663	0	32488	
2664	0	32480	
2665	0	32496	
2666	0	32504	
2667	0	32544	
2668	0	32584	
2669	0	32616	
2670	0	32652	
2671	0	32672	
2672	0	32668	
2673	0	32672	
2674	0	32664	
2675	0	32640	
2676	0	32624	
2677	0	32608	
2678	0	32604	
2679	0	32576	
2680	0	32568	
2681	0	32544	
2682	0	32528	
2683	0	32520	
2684	0	32496	
2685	0	32504	
2686	0	32504	
2687	0	32504	
2688	0	32496	
2689	0	32496	
2690	0	32488	
2691	0	32488	
2692	0	32492	
2693	0	32520	
2694	0	32520	
2695	0	32520	
2696	0	32504	
2697	0	32488	
2698	0	32504	
2699	0	32520	
2700	0	32536	
2701	0	32536	
2702	0	32528	
2703	0	32528	
2704	0	32536	
2705	0	32548	
2706	0	32548	
2707	0	32576	
2708	0	32592	
2709	0	32576	
2710	0	32576	
2711	0	32576	
2712	0	32576	
2713	0	32560	
2714	0	32536	
2715	0	32528	
2716	0	32496	
2717	0	32456	
2718	0	32392	
2719	0	32312	
2720	0	32224	
2721	0	32112	
2722	0	32024	
2723	0	31928	
2724	0	31832	
2725	0	31768	
2726	0	31676	
2727	0	31584	
2728	0	31496	
2729	0	31424	
2730	0	31376	
2731	0	31372	
2732	0	31400	
2733	0	31456	
2734	0	31528	
2735	0	31576	
2736	0	31616	
2737	0	31644	
2738	0	31672	
2739	0	31748	
2740	0	31888	
2741	0	32080	
2742	0	32328	
2743	0	32632	
2744	0	32996	
2745	0	33496	
2746	0	34072	
2747	0	34744	
2748	0	35500	
2749	0	36280	
2750	0	37064	
2751	0	37912	
2752	0	38728	
2753	0	39496	
2754	0	40256	
2755	0	40984	
2756	0	41672	
2757	0	42328	
2758	0	42912	
2759	0	43336	
2760	0	43568	
2761	0	43616	
2762	0	43512	
2763	0	43248	
2764	0	42872	
2765	0	42424	
2766	0	41896	
2767	0	41320	
2768	0	40688	
2769	0	39992	
2770	0	39276	
2771	0	38544	
2772	0	37776	
2773	0	37008	
2774	0	36312	
2775	0	35688	
2776	0	35176	
2777	0	34752	
2778	0	34400	
2779	0	34152	
2780	0	33952	
2781	0	33776	
2782	0	33608	
2783	0	33464	
2784	0	33312	
2785	0	33136	
2786	0	32956	
2787	0	32796	
2788	0	32648	
2789	0	32512	
2790	0	32364	
2791	0	32224	
2792	0	32092	
2793	0	31992	
2794	0	31904	
2795	0	31832	
2796	0	31788	
2797	0	31744	
2798	0	31696	
2799	0	31648	
2800	0	31632	
2801	0	31604	
2802	0	31600	
2803	0	31588	
2804	0	31596	
2805	0	31608	
2806	0	31612	
2807	0	31624	
2808	0	31632	
2809	0	31656	
2810	0	31680	
2811	0	31664	
2812	0	31648	
2813	0	31628	
2814	0	31616	
2815	0	31600	
2816	0	31600	
2817	0	31608	
2818	0	31608	
2819	0	31592	
2820	0	31596	
2821	0	31600	
2822	0	31636	
2823	0	31672	
2824	0	31728	
2825	0	31768	
2826	0	31792	
2827	0	31824	
2828	0	31852	
2829	0	31880	
2830	0	31904	
2831	0	31928	
2832	0	31952	
2833	0	31956	
2834	0	31952	
2835	0	31952	
2836	0	31928	
2837	0	31928	
2838	0	31900	
2839	0	31896	
2840	0	31880	
2841	0	31888	
2842	0	31904	
2843	0	31916	
2844	0	31924	
2845	0	31936	
2846	0	31952	
2847	0	31952	
2848	0	31976	
2849	0	32016	
2850	0	32016	
2851	0	32024	
2852	0	32000	
2853	0	32016	
2854	0	32016	
2855	0	32016	
2856	0	32000	
2857	0	32008	
2858	0	32008	
2859	0	32000	
2860	0	31984	
2861	0	32000	
2862	0	32000	
2863	0	32016	
2864	0	32024	
2865	0	32040	
2866	0	32052	
2867	0	32084	
2868	0	32104	
2869	0	32120	
2870	0	32136	
2871	0	32152	
2872	0	32160	
2873	0	32168	
2874	0	32160	
2875	0	32148	
2876	0	32120	
2877	0	32104	
2878	0	32088	
2879	0	32072	
2880	0	32056	
2881	0	32048	
2882	0	32064	
2883	0	32076	
2884	0	32088	
2885	0	32112	
2886	0	32136	
2887	0	32160	
2888	0	32184	
2889	0	32232	
2890	0	32264	
2891	0	32288	
2892	0	32296	
2893	0	32296	
2894	0	32312	
2895	0	32296	
2896	0	32288	
2897	0	32304	
2898	0	32320	
2899	0	32304	
2900	0	32320	
2901	0	32320	
2902	0	32340	
2903	0	32368	
2904	0	32408	
2905	0	32448	
2906	0	32476	
2907	0	32496	
2908	0	32512	
2909	0	32532	
2910	0	32560	
2911	0	32576	
2912	0	32588	
2913	0	32592	
2914	0	32592	
2915	0	32596	
2916	0	32576	
2917	0	32576	
2918	0	32568	
2919	0	32560	
2920	0	32568	
2921	0	32560	
2922	0	32560	
2923	0	32560	
2924	0	32560	
2925	0	32600	
2926	0	32624	
2927	0	32652	
2928	0	32692	
2929	0	32732	
2930	0	32760	
2931	0	32800	
2932	0	32808	
2933	0	32832	
2934	0	32848	
2935	0	32856	
2936	0	32892	
2937	0	32904	
2938	0	32904	
2939	0	32888	
2940	0	32864	
2941	0	32872	
2942	0	32880	
2943	0	32892	
2944	0	32904	
2945	0	32936	
2946	0	32976	
2947	0	33000	
2948	0	33032	
2949	0	33040	
2950	0	33056	
2951	0	33072	
2952	0	33072	
2953	0	33068	
2954	0	33080	
2955	0	33088	
2956	0	33096	
2957	0	33104	
2958	0	33104	
2959	0	33104	
2960	0	33104	
2961	0	33104	
2962	0	33104	
2963	0	33112	
2964	0	33120	
2965	0	33120	
2966	0	33132	
2967	0	33152	
2968	0	33176	
2969	0	33208	
2970	0	33216	
2971	0	33204	
2972	0	33200	
2973	0	33192	
2974	0	33168	
2975	0	33160	
2976	0	33136	
2977	0	33136	
2978	0	33132	
2979	0	33112	
2980	0	33120	
2981	0	33104	
2982	0	33080	
2983	0	33048	
2984	0	33032	
2985	0	33024	
2986	0	33016	
2987	0	33016	
2988	0	33032	
2989	0	33032	
2990	0	33016	
2991	0	33008	
2992	0	32984	
2993	0	32960	
2994	0	32956	
2995	0	32936	
2996	0	32912	
2997	0	32892	
2998	0	32880	
2999	0	32848	
3000	0	32816	
3001	0	32792	
3002	0	32768	
3003	0	32744	
3004	0	32736	
3005	0	32712	
3006	0	32688	
3007	0	32680	
3008	0	32664	
3009	0	32656	
3010	0	32636	
3011	0	32616	
3012	0	32592	
3013	0	32568	
3014	0	32520	
3015	0	32496	
3016	0	32464	
3017	0	32428	
3018	0	32392	
3019	0	32360	
3020	0	32328	
3021	0	32284	
3022	0	32256	
3023	0	32216	
3024	0	32184	
3025	0	32148	
3026	0	32132	
3027	0	32116	
3028	0	32104	
3029	0	32088	
3030	0	32084	
3031	0	32072	
3032	0	32080	
3033	0	32100	
3034	0	32120	
3035	0	32144	
3036	0	32168	
3037	0	32148	
3038	0	32136	
3039	0	32120	
3040	0	32096	
3041	0	32088	
3042	0	32060	
3043	0	32032	
3044	0	32032	
3045	0	32024	
3046	0	32024	
3047	0	32016	
3048	0	32016	
3049	0	32016	
3050	0	32016	
3051	0	32010	
3052	0	31992	
3053	0	31976	
3054	0	31960	
3055	0	31944	
3056	0	31936	
3057	0	31936	
3058	0	31912	
3059	0	31900	
3060	0	31904	
3061	0	31904	
3062	0	31912	
3063	0	31920	
3064	0	31944	
3065	0	31960	
3066	0	31976	
3067	0	32000	
3068	0	32028	
3069	0	32064	
3070	0	32104	
3071	0	32128	
3072	0	32138	
3073	0	32160	
3074	0	32164	
3075	0	32156	
3076	0	32128	
3077	0	32124	
3078	0	32124	
3079	0	32128	
3080	0	32144	
3081	0	32136	
3082	0	32160	
3083	0	32160	
3084	0	32172	
3085	0	32192	
3086	0	32216	
3087	0	32220	
3088	0	32224	
3089	0	32236	
3090	0	32244	
3091	0	32288	
3092	0	32320	
3093	0	32320	
3094	0	32344	
3095	0	32344	
3096	0	32328	
3097	0	32320	
3098	0	32328	
3099	0	32320	
3100	0	32320	
3101	0	32296	
3102	0	32288	
3103	0	32296	
3104	0	32304	
3105	0	32328	
3106	0	32352	
3107	0	32388	
3108	0	32400	
3109	0	32416	
3110	0	32408	
3111	0	32424	
3112	0	32448	
3113	0	32456	
3114	0	32464	
3115	0	32456	
3116	0	32448	
3117	0	32448	
3118	0	32416	
3119	0	32400	
3120	0	32392	
3121	0	32384	
3122	0	32384	
3123	0	32384	
3124	0	32408	
3125	0	32408	
3126	0	32408	
3127	0	32432	
3128	0	32456	
3129	0	32496	
3130	0	32512	
3131	0	32540	
3132	0	32544	
3133	0	32568	
3134	0	32584	
3135	0	32608	
3136	0	32624	
3137	0	32632	
3138	0	32624	
3139	0	32600	
3140	0	32584	
3141	0	32568	
3142	0	32560	
3143	0	32548	
3144	0	32536	
3145	0	32528	
3146	0	32528	
3147	0	32520	
3148	0	32520	
3149	0	32524	
3150	0	32520	
3151	0	32512	
3152	0	32496	
3153	0	32496	
3154	0	32480	
3155	0	32464	
3156	0	32448	
3157	0	32408	
3158	0	32360	
3159	0	32328	
3160	0	32304	
3161	0	32312	
3162	0	32304	
3163	0	32296	
3164	0	32288	
3165	0	32284	
3166	0	32280	
3167	0	32288	
3168	0	32316	
3169	0	32336	
3170	0	32336	
3171	0	32336	
3172	0	32336	
3173	0	32336	
3174	0	32320	
3175	0	32296	
3176	0	32268	
3177	0	32244	
3178	0	32216	
3179	0	32216	
3180	0	32224	
3181	0	32240	
3182	0	32224	
3183	0	32228	
3184	0	32232	
3185	0	32236	
3186	0	32256	
3187	0	32248	
3188	0	32248	
3189	0	32256	
3190	0	32276	
3191	0	32300	
3192	0	32312	
3193	0	32304	
3194	0	32324	
3195	0	32332	
3196	0	32320	
3197	0	32336	
3198	0	32340	
3199	0	32336	
3200	0	32320	
3201	0	32320	
3202	0	32328	
3203	0	32320	
3204	0	32324	
3205	0	32320	
3206	0	32320	
3207	0	32312	
3208	0	32328	
3209	0	32312	
3210	0	32320	
3211	0	32320	
3212	0	32336	
3213	0	32336	
3214	0	32328	
3215	0	32336	
3216	0	32328	
3217	0	32344	
3218	0	32336	
3219	0	32344	
3220	0	32352	
3221	0	32376	
3222	0	32416	
3223	0	32440	
3224	0	32452	
3225	0	32492	
3226	0	32528	
3227	0	32544	
3228	0	32576	
3229	0	32576	
3230	0	32592	
3231	0	32600	
3232	0	32608	
3233	0	32588	
3234	0	32576	
3235	0	32560	
3236	0	32544	
3237	0	32536	
3238	0	32532	
3239	0	32520	
3240	0	32520	
3241	0	32508	
3242	0	32504	
3243	0	32488	
3244	0	32496	
3245	0	32520	
3246	0	32544	
3247	0	32560	
3248	0	32592	
3249	0	32624	
3250	0	32636	
3251	0	32648	
3252	0	32664	
3253	0	32664	
3254	0	32656	
3255	0	32664	
3256	0	32688	
3257	0	32712	
3258	0	32712	
3259	0	32704	
3260	0	32688	
3261	0	32688	
3262	0	32680	
3263	0	32664	
3264	0	32672	
3265	0	32680	
3266	0	32664	
3267	0	32672	
3268	0	32680	
3269	0	32704	
3270	0	32712	
3271	0	32712	
3272	0	32708	
3273	0	32704	
3274	0	32708	
3275	0	32704	
3276	0	32712	
3277	0	32696	
3278	0	32688	
3279	0	32664	
3280	0	32648	
3281	0	32664	
3282	0	32672	
3283	0	32672	
3284	0	32688	
3285	0	32700	
3286	0	32712	
3287	0	32728	
3288	0	32752	
3289	0	32784	
3290	0	32816	
3291	0	32840	
3292	0	32848	
3293	0	32848	
3294	0	32848	
3295	0	32860	
3296	0	32848	
3297	0	32832	
3298	0	32816	
3299	0	32784	
3300	0	32760	
3301	0	32736	
3302	0	32712	
3303	0	32696	
3304	0	32688	
3305	0	32668	
3306	0	32680	
3307	0	32696	
3308	0	32704	
3309	0	32696	
3310	0	32672	
3311	0	32636	
3312	0	32616	
3313	0	32632	
3314	0	32664	
3315	0	32672	
3316	0	32672	
3317	0	32688	
3318	0	32692	
3319	0	32696	
3320	0	32716	
3321	0	32720	
3322	0	32724	
3323	0	32728	
3324	0	32720	
3325	0	32744	
3326	0	32752	
3327	0	32800	
3328	0	32850	
3329	0	32872	
3330	0	32896	
3331	0	32920	
3332	0	32920	
3333	0	32928	
3334	0	32912	
3335	0	32908	
3336	0	32888	
3337	0	32852	
3338	0	32824	
3339	0	32808	
3340	0	32808	
3341	0	32808	
3342	0	32824	
3343	0	32832	
3344	0	32844	
3345	0	32856	
3346	0	32876	
3347	0	32888	
3348	0	32888	
3349	0	32908	
3350	0	32920	
3351	0	32896	
3352	0	32888	
3353	0	32892	
3354	0	32888	
3355	0	32872	
3356	0	32864	
3357	0	32832	
3358	0	32816	
3359	0	32792	
3360	0	32752	
3361	0	32728	
3362	0	32688	
3363	0	32676	
3364	0	32680	
3365	0	32684	
3366	0	32696	
3367	0	32704	
3368	0	32704	
3369	0	32712	
3370	0	32728	
3371	0	32736	
3372	0	32748	
3373	0	32776	
3374	0	32776	
3375	0	32776	
3376	0	32768	
3377	0	32760	
3378	0	32744	
3379	0	32736	
3380	0	32708	
3381	0	32696	
3382	0	32676	
3383	0	32672	
3384	0	32680	
3385	0	32688	
3386	0	32704	
3387	0	32716	
3388	0	32732	
3389	0	32744	
3390	0	32760	
3391	0	32776	
3392	0	32780	
3393	0	32780	
3394	0	32768	
3395	0	32752	
3396	0	32744	
3397	0	32744	
3398	0	32752	
3399	0	32768	
3400	0	32760	
3401	0	32736	
3402	0	32736	
3403	0	32736	
3404	0	32752	
3405	0	32768	
3406	0	32784	
3407	0	32800	
3408	0	32832	
3409	0	32864	
3410	0	32896	
3411	0	32904	
3412	0	32904	
3413	0	32912	
3414	0	32904	
3415	0	32880	
3416	0	32872	
3417	0	32848	
3418	0	32816	
3419	0	32812	
3420	0	32800	
3421	0	32792	
3422	0	32784	
3423	0	32792	
3424	0	32808	
3425	0	32824	
3426	0	32832	
3427	0	32840	
3428	0	32856	
3429	0	32856	
3430	0	32880	
3431	0	32896	
3432	0	32920	
3433	0	32912	
3434	0	32892	
3435	0	32864	
3436	0	32860	
3437	0	32832	
3438	0	32776	
3439	0	32736	
3440	0	32680	
3441	0	32600	
3442	0	32528	
3443	0	32448	
3444	0	32352	
3445	0	32288	
3446	0	32176	
3447	0	32092	
3448	0	31988	
3449	0	31884	
3450	0	31808	
3451	0	31776	
3452	0	31788	
3453	0	31816	
3454	0	31840	
3455	0	31864	
3456	0	31868	
3457	0	31868	
3458	0	31852	
3459	0	31872	
3460	0	31944	
3461	0	32096	
3462	0	32300	
3463	0	32584	
3464	0	32928	
3465	0	33380	
3466	0	33928	
3467	0	34552	
3468	0	35264	
3469	0	36016	
3470	0	36792	
3471	0	37624	
3472	0	38496	
3473	0	39312	
3474	0	40056	
3475	0	40768	
3476	0	41472	
3477	0	42160	
3478	0	42804	
3479	0	43368	
3480	0	43756	
3481	0	43968	
3482	0	44000	
3483	0	43848	
3484	0	43544	
3485	0	43112	
3486	0	42672	
3487	0	42152	
3488	0	41576	
3489	0	40936	
3490	0	40264	
3491	0	39528	
3492	0	38744	
3493	0	37984	
3494	0	37232	
3495	0	36536	
3496	0	35920	
3497	0	35448	
3498	0	35024	
3499	0	34696	
3500	0	34424	
3501	0	34200	
3502	0	33992	
3503	0	33800	
3504	0	33632	
3505	0	33456	
3506	0	33288	
3507	0	33128	
3508	0	32976	
3509	0	32832	
3510	0	32648	
3511	0	32508	
3512	0	32376	
3513	0	32232	
3514	0	32112	
3515	0	32000	
3516	0	31944	
3517	0	31880	
3518	0	31808	
3519	0	31744	
3520	0	31688	
3521	0	31656	
3522	0	31616	
3523	0	31600	
3524	0	31592	
3525	0	31612	
3526	0	31616	
3527	0	31624	
3528	0	31616	
3529	0	31616	
3530	0	31616	
3531	0	31608	
3532	0	31608	
3533	0	31632	
3534	0	31656	
3535	0	31664	
3536	0	31656	
3537	0	31648	
3538	0	31624	
3539	0	31600	
3540	0	31592	
3541	0	31584	
3542	0	31580	
3543	0	31584	
3544	0	31572	
3545	0	31608	
3546	0	31624	
3547	0	31616	
3548	0	31616	
3549	0	31612	
3550	0	31592	
3551	0	31592	
3552	0	31612	
3553	0	31616	
3554	0	31616	
3555	0	31612	
3556	0	31624	
3557	0	31632	
3558	0	31628	
3559	0	31624	
3560	0	31656	
3561	0	31656	
3562	0	31688	
3563	0	31696	
3564	0	31704	
3565	0	31736	
3566	0	31748	
3567	0	31776	
3568	0	31800	
3569	0	31816	
3570	0	31848	
3571	0	31868	
3572	0	31884	
3573	0	31876	
3574	0	31872	
3575	0	31868	
3576	0	31848	
3577	0	31816	
3578	0	31792	
3579	0	31776	
3580	0	31776	
3581	0	31768	
3582	0	31784	
3583	0	31800	
3584	0	31800	
3585	0	31808	
3586	0	31840	
3587	0	31848	
3588	0	31856	
3589	0	31872	
3590	0	31896	
3591	0	31904	
3592	0	31912	
3593	0	31912	
3594	0	31912	
3595	0	31920	
3596	0	31940	
3597	0	31952	
3598	0	31976	
3599	0	32008	
3600	0	32032	
3601	0	32048	
3602	0	32088	
3603	0	32112	
3604	0	32136	
3605	0	32160	
3606	0	32160	
3607	0	32184	
3608	0	32188	
3609	0	32208	
3610	0	32216	
3611	0	32240	
3612	0	32272	
3613	0	32304	
3614	0	32328	
3615	0	32328	
3616	0	32352	
3617	0	32352	
3618	0	32348	
3619	0	32368	
3620	0	32392	
3621	0	32400	
3622	0	32412	
3623	0	32432	
3624	0	32432	
3625	0	32440	
3626	0	32440	
3627	0	32464	
3628	0	32480	
3629	0	32488	
3630	0	32480	
3631	0	32488	
3632	0	32512	
3633	0	32544	
3634	0	32552	
3635	0	32568	
3636	0	32552	
3637	0	32568	
3638	0	32560	
3639	0	32552	
3640	0	32568	
3641	0	32560	
3642	0	32568	
3643	0	32568	
3644	0	32576	
3645	0	32584	
3646	0	32616	
3647	0	32664	
3648	0	32680	
3649	0	32696	
3650	0	32712	
3651	0	32720	
3652	0	32720	
3653	0	32716	
3654	0	32712	
3655	0	32704	
3656	0	32696	
3657	0	32704	
3658	0	32696	
3659	0	32666	
3660	0	32656	
3661	0	32648	
3662	0	32632	
3663	0	32648	
3664	0	32664	
3665	0	32660	
3666	0	32640	
3667	0	32640	
3668	0	32648	
3669	0	32668	
3670	0	32704	
3671	0	32736	
3672	0	32760	
3673	0	32780	
3674	0	32796	
3675	0	32800	
3676	0	32816	
3677	0	32832	
3678	0	32832	
3679	0	32800	
3680	0	32792	
3681	0	32792	
3682	0	32776	
3683	0	32792	
3684	0	32804	
3685	0	32832	
3686	0	32848	
3687	0	32832	
3688	0	32848	
3689	0	32852	
3690	0	32832	
3691	0	32816	
3692	0	32812	
3693	0	32808	
3694	0	32784	
3695	0	32752	
3696	0	32728	
3697	0	32688	
3698	0	32672	
3699	0	32656	
3700	0	32664	
3701	0	32664	
3702	0	32664	
3703	0	32672	
3704	0	32688	
3705	0	32704	
3706	0	32704	
3707	0	32720	
3708	0	32740	
3709	0	32792	
3710	0	32800	
3711	0	32800	
3712	0	32824	
3713	0	32824	
3714	0	32832	
3715	0	32808	
3716	0	32784	
3717	0	32768	
3718	0	32744	
3719	0	32704	
3720	0	32684	
3721	0	32664	
3722	0	32664	
3723	0	32656	
3724	0	32656	
3725	0	32640	
3726	0	32628	
3727	0	32632	
3728	0	32624	
3729	0	32632	
3730	0	32624	
3731	0	32616	
3732	0	32600	
3733	0	32584	
3734	0	32552	
3735	0	32520	
3736	0	32496	
3737	0	32468	
3738	0	32456	
3739	0	32432	
3740	0	32424	
3741	0	32424	
3742	0	32408	
3743	0	32392	
3744	0	32368	
3745	0	32360	
3746	0	32376	
3747	0	32370	
3748	0	32392	
3749	0	32384	
3750	0	32400	
3751	0	32408	
3752	0	32392	
3753	0	32380	
3754	0	32368	
3755	0	32320	
3756	0	32304	
3757	0	32288	
3758	0	32280	
3759	0	32256	
3760	0	32224	
3761	0	32200	
3762	0	32184	
3763	0	32176	
3764	0	32176	
3765	0	32184	
3766	0	32188	
3767	0	32200	
3768	0	32216	
3769	0	32224	
3770	0	32232	
3771	0	32224	
3772	0	32216	
3773	0	32192	
3774	0	32176	
3775	0	32168	
3776	0	32140	
3777	0	32128	
3778	0	32112	
3779	0	32112	
3780	0	32120	
3781	0	32104	
3782	0	32104	
3783	0	32128	
3784	0	32160	
3785	0	32160	
3786	0	32160	
3787	0	32184	
3788	0	32192	
3789	0	32192	
3790	0	32208	
3791	0	32208	
3792	0	32216	
3793	0	32224	
3794	0	32224	
3795	0	32244	
3796	0	32240	
3797	0	32236	
3798	0	32224	
3799	0	32192	
3800	0	32192	
3801	0	32192	
3802	0	32192	
3803	0	32176	
3804	0	32184	
3805	0	32184	
3806	0	32216	
3807	0	32228	
3808	0	32252	
3809	0	32256	
3810	0	32256	
3811	0	32288	
3812	0	32288	
3813	0	32288	
3814	0	32288	
3815	0	32288	
3816	0	32296	
3817	0	32276	
3818	0	32248	
3819	0	32236	
3820	0	32232	
3821	0	32220	
3822	0	32228	
3823	0	32236	
3824	0	32232	
3825	0	32232	
3826	0	32248	
3827	0	32284	
3828	0	32288	
3829	0	32284	
3830	0	32296	
3831	0	32308	
3832	0	32308	
3833	0	32320	
3834	0	32312	
3835	0	32328	
3836	0	32360	
3837	0	32360	
3838	0	32376	
3839	0	32368	
3840	0	32360	
3841	0	32360	
3842	0	32360	
3843	0	32368	
3844	0	32384	
3845	0	32384	
3846	0	32396	
3847	0	32432	
3848	0	32456	
3849	0	32472	
3850	0	32480	
3851	0	32480	
3852	0	32480	
3853	0	32472	
3854	0	32488	
3855	0	32488	
3856	0	32488	
3857	0	32460	
3858	0	32436	
3859	0	32416	
3860	0	32384	
3861	0	32376	
3862	0	32360	
3863	0	32348	
3864	0	32328	
3865	0	32344	
3866	0	32376	
3867	0	32384	
3868	0	32392	
3869	0	32416	
3870	0	32448	
3871	0	32472	
3872	0	32488	
3873	0	32512	
3874	0	32508	
3875	0	32488	
3876	0	32456	
3877	0	32424	
3878	0	32392	
3879	0	32392	
3880	0	32384	
3881	0	32372	
3882	0	32352	
3883	0	32324	
3884	0	32304	
3885	0	32304	
3886	0	32288	
3887	0	32312	
3888	0	32320	
3889	0	32352	
3890	0	32384	
3891	0	32384	
3892	0	32368	
3893	0	32360	
3894	0	32352	
3895	0	32344	
3896	0	32336	
3897	0	32328	
3898	0	32304	
3899	0	32284	
3900	0	32240	
3901	0	32220	
3902	0	32248	
3903	0	32248	
3904	0	32272	
3905	0	32288	
3906	0	32300	
3907	0	32320	
3908	0	32352	
3909	0	32388	
3910	0	32408	
3911	0	32424	
3912	0	32436	
3913	0	32424	
3914	0	32416	
3915	0	32408	
3916	0	32400	
3917	0	32376	
3918	0	32364	
3919	0	32344	
3920	0	32376	
3921	0	32376	
3922	0	32376	
3923	0	32368	
3924	0	32392	
3925	0	32432	
3926	0	32460	
3927	0	32472	
3928	0	32508	
3929	0	32536	
3930	0	32532	
3931	0	32512	
3932	0	32488	
3933	0	32496	
3934	0	32496	
3935	0	32488	
3936	0	32464	
3937	0	32468	
3938	0	32440	
3939	0	32440	
3940	0	32448	
3941	0	32448	
3942	0	32456	
3943	0	32440	
3944	0	32456	
3945	0	32456	
3946	0	32476	
3947	0	32480	
3948	0	32496	
3949	0	32504	
3950	0	32492	
3951	0	32512	
3952	0	32504	
3953	0	32488	
3954	0	32488	
3955	0	32472	
3956	0	32456	
3957	0	32432	
3958	0	32400	
3959	0	32368	
3960	0	32344	
3961	0	32292	
3962	0	32264	
3963	0	32248	
3964	0	32232	
3965	0	32200	
3966	0	32188	
3967	0	32184	
3968	0	32176	
3969	0	32160	
3970	0	32144	
3971	0	32104	
3972	0	32080	
3973	0	32052	
3974	0	32032	
3975	0	32004	
3976	0	31968	
3977	0	31936	
3978	0	31904	
3979	0	31880	
3980	0	31864	
3981	0	31864	
3982	0	31852	
3983	0	31840	
3984	0	31856	
3985	0	31848	
3986	0	31848	
3987	0	31856	
3988	0	31888	
3989	0	31928	
3990	0	31944	
3991	0	31964	
3992	0	31980	
3993	0	31992	
3994	0	32000	
3995	0	31996	
3996	0	31980	
3997	0	31960	
3998	0	31936	
3999	0	31928	
4000	0	31928	
4001	0	31924	
4002	0	31920	
4003	0	31936	
4004	0	31976	
4005	0	32000	
4006	0	32024	
4007	0	32040	
4008	0	32064	
4009	0	32104	
4010	0	32128	
4011	0	32128	
4012	0	32124	
4013	0	32120	
4014	0	32104	
4015	0	32072	
4016	0	32044	
4017	0	32040	
4018	0	32000	
4019	0	31988	
4020	0	31984	
4021	0	31968	
4022	0	31940	
4023	0	31944	
4024	0	31952	
4025	0	31980	
4026	0	31976	
4027	0	31968	
4028	0	31992	
4029	0	32008	
4030	0	32040	
4031	0	32048	
4032	0	32088	
4033	0	32080	
4034	0	32088	
4035	0	32088	
4036	0	32104	
4037	0	32128	
4038	0	32140	
4039	0	32144	
4040	0	32152	
4041	0	32152	
4042	0	32160	
4043	0	32208	
4044	0	32252	
4045	0	32280	
4046	0	32288	
4047	0	32292	
4048	0	32296	
4049	0	32320	
4050	0	32344	
4051	0	32352	
4052	0	32356	
4053	0	32368	
4054	0	32376	
4055	0	32384	
4056	0	32384	
4057	0	32376	
4058	0	32352	
4059	0	32336	
4060	0	32320	
4061	0	32328	
4062	0	32312	
4063	0	32304	
4064	0	32300	
4065	0	32288	
4066	0	32288	
4067	0	32308	
4068	0	32332	
4069	0	32376	
4070	0	32392	
4071	0	32416	
4072	0	32440	
4073	0	32464	
4074	0	32456	
4075	0	32440	
4076	0	32416	
4077	0	32392	
4078	0	32372	
4079	0	32340	
4080	0	32328	
4081	0	32320	
4082	0	32328	
4083	0	32328	
4084	0	32336	
4085	0	32368	
4086	0	32384	
4087	0	32400	
4088	0	32428	
4089	0	32452	
4090	0	32492	
4091	0	32504	
4092	0	32512	
4093	0	32520	
4094	0	32520	
4095	0	32544	
4096	0	32552	
4097	0	32560	
4098	0	32552	
4099	0	32564	
4100	0	32572	
4101	0	32584	
4102	0	32584	
4103	0	32592	
4104	0	32636	
4105	0	32672	
4106	0	32704	
4107	0	32736	
4108	0	32762	
4109	0	32784	
4110	0	32808	
4111	0	32844	
4112	0	32856	
4113	0	32856	
4114	0	32876	
4115	0	32888	
4116	0	32896	
4117	0	32912	
4118	0	32920	
4119	0	32920	
4120	0	32944	
4121	0	32944	
4122	0	32968	
4123	0	32960	
4124	0	32960	
4125	0	32976	
4126	0	32984	
4127	0	32996	
4128	0	33000	
4129	0	33008	
4130	0	33024	
4131	0	33048	
4132	0	33072	
4133	0	33080	
4134	0	33088	
4135	0	33088	
4136	0	33096	
4137	0	33096	
4138	0	33112	
4139	0	33128	
4140	0	33128	
4141	0	33112	
4142	0	33104	
4143	0	33104	
4144	0	33112	
4145	0	33120	
4146	0	33128	
4147	0	33144	
4148	0	33148	
4149	0	33152	
4150	0	33144	
4151	0	33108	
4152	0	33072	
4153	0	33016	
4154	0	32940	
4155	0	32848	
4156	0	32760	
4157	0	32648	
4158	0	32552	
4159	0	32416	
4160	0	32280	
4161	0	32152	
4162	0	32036	
4163	0	31968	
4164	0	31964	
4165	0	31976	
4166	0	31984	
4167	0	31984	
4168	0	32000	
4169	0	32020	
4170	0	32024	
4171	0	32064	
4172	0	32156	
4173	0	32312	
4174	0	32528	
4175	0	32808	
4176	0	33152	
4177	0	33536	
4178	0	34040	
4179	0	34632	
4180	0	35328	
4181	0	36080	
4182	0	36876	
4183	0	37704	
4184	0	38584	
4185	0	39424	
4186	0	40192	
4187	0	40936	
4188	0	41680	
4189	0	42376	
4190	0	43040	
4191	0	43616	
4192	0	44064	
4193	0	44336	
4194	0	44424	
4195	0	44312	
4196	0	44040	
4197	0	43648	
4198	0	43200	
4199	0	42672	
4200	0	42112	
4201	0	41472	
4202	0	40792	
4203	0	40072	
4204	0	39328	
4205	0	38568	
4206	0	37824	
4207	0	37136	
4208	0	36560	
4209	0	36056	
4210	0	35688	
4211	0	35392	
4212	0	35156	
4213	0	34976	
4214	0	34812	
4215	0	34672	
4216	0	34520	
4217	0	34336	
4218	0	34164	
4219	0	33992	
4220	0	33808	
4221	0	33664	
4222	0	33496	
4223	0	33352	
4224	0	33184	
4225	0	33096	
4226	0	33024	
4227	0	32952	
4228	0	32896	
4229	0	32864	
4230	0	32832	
4231	0	32808	
4232	0	32776	
4233	0	32744	
4234	0	32696	
4235	0	32664	
4236	0	32632	
4237	0	32616	
4238	0	32592	
4239	0	32576	
4240	0	32560	
4241	0	32520	
4242	0	32496	
4243	0	32484	
4244	0	32488	
4245	0	32512	
4246	0	32528	
4247	0	32536	
4248	0	32544	
4249	0	32536	
4250	0	32560	
4251	0	32588	
4252	0	32612	
4253	0	32620	
4254	0	32636	
4255	0	32640	
4256	0	32632	
4257	0	32632	
4258	0	32616	
4259	0	32616	
4260	0	32584	
4261	0	32560	
4262	0	32544	
4263	0	32536	
4264	0	32544	
4265	0	32564	
4266	0	32568	
4267	0	32600	
4268	0	32624	
4269	0	32648	
4270	0	32672	
4271	0	32672	
4272	0	32688	
4273	0	32704	
4274	0	32728	
4275	0	32736	
4276	0	32728	
4277	0	32720	
4278	0	32720	
4279	0	32716	
4280	0	32736	
4281	0	32736	
4282	0	32784	
4283	0	32816	
4284	0	32856	
4285	0	32864	
4286	0	32888	
4287	0	32920	
4288	0	32960	
4289	0	32992	
4290	0	33028	
4291	0	33056	
4292	0	33096	
4293	0	33108	
4294	0	33120	
4295	0	33104	
4296	0	33096	
4297	0	33080	
4298	0	33060	
4299	0	33048	
4300	0	33032	
4301	0	33024	
4302	0	33008	
4303	0	33016	
4304	0	33012	
4305	0	33032	
4306	0	33040	
4307	0	33048	
4308	0	33080	
4309	0	33096	
4310	0	33096	
4311	0	33088	
4312	0	33104	
4313	0	33128	
4314	0	33144	
4315	0	33164	
4316	0	33184	
4317	0	33216	
4318	0	33248	
4319	0	33264	
4320	0	33304	
4321	0	33328	
4322	0	33336	
4323	0	33344	
4324	0	33352	
4325	0	33360	
4326	0	33376	
4327	0	33392	
4328	0	33388	
4329	0	33400	
4330	0	33404	
4331	0	33384	
4332	0	33364	
4333	0	33344	
4334	0	33336	
4335	0	33320	
4336	0	33296	
4337	0	33288	
4338	0	33264	
4339	0	33248	
4340	0	33244	
4341	0	33264	
4342	0	33264	
4343	0	33280	
4344	0	33312	
4345	0	33332	
4346	0	33328	
4347	0	33344	
4348	0	33336	
4349	0	33336	
4350	0	33320	
4351	0	33296	
4352	0	33276	
4353	0	33240	
4354	0	33224	
4355	0	33200	
4356	0	33168	
4357	0	33144	
4358	0	33112	
4359	0	33072	
4360	0	33040	
4361	0	33024	
4362	0	33016	
4363	0	32992	
4364	0	32992	
4365	0	32984	
4366	0	33008	
4367	0	32996	
4368	0	32992	
4369	0	32992	
4370	0	32968	
4371	0	32976	
4372	0	32960	
4373	0	32952	
4374	0	32940	
4375	0	32920	
4376	0	32896	
4377	0	32880	
4378	0	32868	
4379	0	32864	
4380	0	32848	
4381	0	32816	
4382	0	32776	
4383	0	32744	
4384	0	32704	
4385	0	32688	
4386	0	32672	
4387	0	32668	
4388	0	32668	
4389	0	32664	
4390	0	32656	
4391	0	32648	
4392	0	32632	
4393	0	32616	
4394	0	32584	
4395	0	32536	
4396	0	32504	
4397	0	32472	
4398	0	32416	
4399	0	32344	
4400	0	32288	
4401	0	32208	
4402	0	32144	
4403	0	32080	
4404	0	32032	
4405	0	31972	
4406	0	31916	
4407	0	31848	
4408	0	31784	
4409	0	31696	
4410	0	31632	
4411	0	31560	
4412	0	31496	
4413	0	31428	
4414	0	31348	
4415	0	31240	
4416	0	31152	
4417	0	31048	
4418	0	30976	
4419	0	30888	
4420	0	30784	
4421	0	30688	
4422	0	30616	
4423	0	30544	
4424	0	30480	
4425	0	30444	
4426	0	30408	
4427	0	30360	
4428	0	30328	
4429	0	30280	
4430	0	30228	
4431	0	30184	
4432	0	30132	
4433	0	30088	
4434	0	29996	
4435	0	29948	
4436	0	29880	
4437	0	29840	
4438	0	29784	
4439	0	29712	
4440	0	29648	
4441	0	29580	
4442	0	29484	
4443	0	29424	
4444	0	29368	
4445	0	29324	
4446	0	29280	
4447	0	29228	
4448	0	29184	
4449	0	29152	
4450	0	29116	
4451	0	29068	
4452	0	29016	
4453	0	28968	
4454	0	28912	
4455	0	28864	
4456	0	28816	
4457	0	28744	
4458	0	28680	
4459	0	28616	
4460	0	28536	
4461	0	28456	
4462	0	28392	
4463	0	28360	
4464	0	28320	
4465	0	28288	
4466	0	28264	
4467	0	28240	
4468	0	28208	
4469	0	28160	
4470	0	28124	
4471	0	28100	
4472	0	28072	
4473	0	28056	
4474	0	28032	
4475	0	28028	
4476	0	28024	
4477	0	28016	
4478	0	28008	
4479	0	28008	
4480	0	28016	
4481	0	28008	
4482	0	28024	
4483	0	28024	
4484	0	28032	
4485	0	28024	
4486	0	28048	
4487	0	28072	
4488	0	28088	
4489	0	28112	
4490	0	28128	
4491	0	28124	
4492	0	28128	
4493	0	28100	
4494	0	28056	
4495	0	28032	
4496	0	28024	
4497	0	28000	
4498	0	27992	
4499	0	27984	
4500	0	27984	
4501	0	27968	
4502	0	27972	
4503	0	27976	
4504	0	27976	
4505	0	27984	
4506	0	27988	
4507	0	28012	
4508	0	28056	
4509	0	28080	
4510	0	28108	
4511	0	28128	
4512	0	28148	
4513	0	28152	
4514	0	28148	
4515	0	28144	
4516	0	28140	
4517	0	28136	
4518	0	28128	
4519	0	28132	
4520	0	28120	
4521	0	28112	
4522	0	28112	
4523	0	28128	
4524	0	28152	
4525	0	28172	
4526	0	28192	
4527	0	28240	
4528	0	28288	
4529	0	28340	
4530	0	28376	
4531	0	28392	
4532	0	28392	
4533	0	28400	
4534	0	28400	
4535	0	28400	
4536	0	28416	
4537	0	28432	
4538	0	28440	
4539	0	28456	
4540	0	28488	
4541	0	28508	
4542	0	28538	
4543	0	28568	
4544	0	28608	
4545	0	28664	
4546	0	28720	
4547	0	28768	
4548	0	28812	
4549	0	28864	
4550	0	28904	
4551	0	28944	
4552	0	28960	
4553	0	28992	
4554	0	29024	
4555	0	29056	
4556	0	29072	
4557	0	29088	
4558	0	29096	
4559	0	29104	
4560	0	29112	
4561	0	29136	
4562	0	29168	
4563	0	29184	
4564	0	29244	
4565	0	29288	
4566	0	29336	
4567	0	29400	
4568	0	29464	
4569	0	29520	
4570	0	29568	
4571	0	29616	
4572	0	29656	
4573	0	29712	
4574	0	29728	
4575	0	29744	
4576	0	29744	
4577	0	29752	
4578	0	29772	
4579	0	29800	
4580	0	29840	
4581	0	29852	
4582	0	29848	
4583	0	29888	
4584	0	29920	
4585	0	29936	
4586	0	29964	
4587	0	29976	
4588	0	30024	
4589	0	30056	
4590	0	30080	
4591	0	30096	
4592	0	30104	
4593	0	30128	
4594	0	30124	
4595	0	30120	
4596	0	30148	
4597	0	30172	
4598	0	30192	
4599	0	30200	
4600	0	30188	
4601	0	30188	
4602	0	30192	
4603	0	30212	
4604	0	30240	
4605	0	30272	
4606	0	30296	
4607	0	30328	
4608	0	30364	
4609	0	30400	
4610	0	30432	
4611	0	30464	
4612	0	30496	
4613	0	30532	
4614	0	30544	
4615	0	30560	
4616	0	30580	
4617	0	30592	
4618	0	30624	
4619	0	30624	
4620	0	30632	
4621	0	30648	
4622	0	30656	
4623	0	30676	
4624	0	30684	
4625	0	30728	
4626	0	30760	
4627	0	30792	
4628	0	30808	
4629	0	30832	
4630	0	30856	
4631	0	30896	
4632	0	30928	
4633	0	30944	
4634	0	30960	
4635	0	30944	
4636	0	30928	
4637	0	30932	
4638	0	30932	
4639	0	30944	
4640	0	30968	
4641	0	30992	
4642	0	31000	
4643	0	31016	
4644	0	31032	
4645	0	31064	
4646	0	31104	
4647	0	31136	
4648	0	31176	
4649	0	31184	
4650	0	31200	
4651	0	31220	
4652	0	31232	
4653	0	31256	
4654	0	31280	
4655	0	31304	
4656	0	31328	
4657	0	31352	
4658	0	31376	
4659	0	31368	
4660	0	31368	
4661	0	31376	
4662	0	31376	
4663	0	31384	
4664	0	31384	
4665	0	31400	
4666	0	31408	
4667	0	31408	
4668	0	31424	
4669	0	31416	
4670	0	31424	
4671	0	31456	
4672	0	31480	
4673	0	31488	
4674	0	31512	
4675	0	31504	
4676	0	31500	
4677	0	31528	
4678	0	31530	
4679	0	31536	
4680	0	31520	
4681	0	31520	
4682	0	31512	
4683	0	31516	
4684	0	31512	
4685	0	31496	
4686	0	31512	
4687	0	31532	
4688	0	31552	
4689	0	31576	
4690	0	31616	
4691	0	31648	
4692	0	31660	
4693	0	31664	
4694	0	31656	
4695	0	31668	
4696	0	31656	
4697	0	31664	
4698	0	31656	
4699	0	31648	
4700	0	31648	
4701	0	31648	
4702	0	31648	
4703	0	31632	
4704	0	31632	
4705	0	31648	
4706	0	31648	
4707	0	31656	
4708	0	31680	
4709	0	31696	
4710	0	31708	
4711	0	31720	
4712	0	31740	
4713	0	31736	
4714	0	31728	
4715	0	31712	
4716	0	31704	
4717	0	31688	
4718	0	31680	
4719	0	31680	
4720	0	31690	
4721	0	31688	
4722	0	31704	
4723	0	31680	
4724	0	31696	
4725	0	31712	
4726	0	31744	
4727	0	31784	
4728	0	31824	
4729	0	31872	
4730	0	31904	
4731	0	31928	
4732	0	31944	
4733	0	31968	
4734	0	31992	
4735	0	32000	
4736	0	32032	
4737	0	32056	
4738	0	32076	
4739	0	32096	
4740	0	32112	
4741	0	32120	
4742	0	32152	
4743	0	32192	
4744	0	32240	
4745	0	32272	
4746	0	32296	
4747	0	32316	
4748	0	32360	
4749	0	32376	
4750	0	32384	
4751	0	32392	
4752	0	32400	
4753	0	32400	
4754	0	32424	
4755	0	32440	
4756	0	32472	
4757	0	32500	
4758	0	32512	
4759	0	32520	
4760	0	32536	
4761	0	32536	
4762	0	32568	
4763	0	32568	
4764	0	32568	
4765	0	32584	
4766	0	32600	
4767	0	32632	
4768	0	32672	
4769	0	32720	
4770	0	32768	
4771	0	32808	
4772	0	32860	
4773	0	32888	
4774	0	32920	
4775	0	32940	
4776	0	32952	
4777	0	32960	
4778	0	32960	
4779	0	32952	
4780	0	32944	
4781	0	32940	
4782	0	32944	
4783	0	32960	
4784	0	32984	
4785	0	33000	
4786	0	33052	
4787	0	33096	
4788	0	33140	
4789	0	33208	
4790	0	33240	
4791	0	33260	
4792	0	33296	
4793	0	33336	
4794	0	33384	
4795	0	33424	
4796	0	33464	
4797	0	33496	
4798	0	33520	
4799	0	33536	
4800	0	33544	
4801	0	33568	
4802	0	33592	
4803	0	33632	
4804	0	33672	
4805	0	33704	
4806	0	33720	
4807	0	33760	
4808	0	33816	
4809	0	33856	
4810	0	33896	
4811	0	33936	
4812	0	33944	
4813	0	33968	
4814	0	33976	
4815	0	33992	
4816	0	34008	
4817	0	34012	
4818	0	34016	
4819	0	34032	
4820	0	34040	
4821	0	34048	
4822	0	34064	
4823	0	34080	
4824	0	34088	
4825	0	34112	
4826	0	34136	
4827	0	34184	
4828	0	34232	
4829	0	34248	
4830	0	34272	
4831	0	34280	
4832	0	34284	
4833	0	34288	
4834	0	34288	
4835	0	34296	
4836	0	34296	
4837	0	34296	
4838	0	34280	
4839	0	34272	
4840	0	34256	
4841	0	34272	
4842	0	34288	
4843	0	34292	
4844	0	34304	
4845	0	34328	
4846	0	34328	
4847	0	34344	
4848	0	34360	
4849	0	34376	
4850	0	34368	
4851	0	34344	
4852	0	34308	
4853	0	34268	
4854	0	34188	
4855	0	34120	
4856	0	34024	
4857	0	33944	
4858	0	33864	
4859	0	33768	
4860	0	33632	
4861	0	33528	
4862	0	33448	
4863	0	33392	
4864	0	33408	
4865	0	33464	
4866	0	33512	
4867	0	33544	
4868	0	33604	
4869	0	33656	
4870	0	33696	
4871	0	33752	
4872	0	33832	
4873	0	33956	
4874	0	34156	
4875	0	34392	
4876	0	34648	
4877	0	34988	
4878	0	35416	
4879	0	35928	
4880	0	36520	
4881	0	37216	
4882	0	37976	
4883	0	38848	
4884	0	39736	
4885	0	40544	
4886	0	41304	
4887	0	42032	
4888	0	42752	
4889	0	43440	
4890	0	44104	
4891	0	44720	
4892	0	45200	
4893	0	45504	
4894	0	45692	
4895	0	45664	
4896	0	45408	
4897	0	45032	
4898	0	44584	
4899	0	44024	
4900	0	43392	
4901	0	42696	
4902	0	41960	
4903	0	41208	
4904	0	40424	
4905	0	39640	
4906	0	38896	
4907	0	38216	
4908	0	37624	
4909	0	37144	
4910	0	36768	
4911	0	36480	
4912	0	36280	
4913	0	36120	
4914	0	35984	
4915	0	35848	
4916	0	35708	
4917	0	35560	
4918	0	35400	
4919	0	35240	
4920	0	35056	
4921	0	34880	
4922	0	34712	
4923	0	34584	
4924	0	34456	
4925	0	34328	
4926	0	34196	
4927	0	34080	
4928	0	33976	
4929	0	33904	
4930	0	33836	
4931	0	33776	
4932	0	33728	
4933	0	33688	
4934	0	33656	
4935	0	33576	
4936	0	33528	
4937	0	33472	
4938	0	33448	
4939	0	33400	
4940	0	33364	
4941	0	33328	
4942	0	33296	
4943	0	33280	
4944	0	33268	
4945	0	33272	
4946	0	33248	
4947	0	33264	
4948	0	33280	
4949	0	33296	
4950	0	33304	
4951	0	33296	
4952	0	33296	
4953	0	33292	
4954	0	33288	
4955	0	33280	
4956	0	33280	
4957	0	33280	
4958	0	33272	
4959	0	33272	
4960	0	33312	
4961	0	33344	
4962	0	33396	
4963	0	33412	
4964	0	33436	
4965	0	33464	
4966	0	33464	
4967	0	33480	
4968	0	33504	
4969	0	33536	
4970	0	33568	
4971	0	33584	
4972	0	33616	
4973	0	33628	
4974	0	33592	
4975	0	33580	
4976	0	33568	
4977	0	33564	
4978	0	33548	
4979	0	33552	
4980	0	33548	
4981	0	33556	
4982	0	33536	
4983	0	33528	
4984	0	33544	
4985	0	33556	
4986	0	33568	
4987	0	33560	
4988	0	33548	
4989	0	33552	
4990	0	33560	
4991	0	33568	
4992	0	33576	
4993	0	33580	
4994	0	33576	
4995	0	33544	
4996	0	33512	
4997	0	33504	
4998	0	33504	
4999	0	33508	
5000	0	33504	
5001	0	33512	
5002	0	33536	
5003	0	33536	
5004	0	33560	
5005	0	33584	
5006	0	33600	
5007	0	33624	
5008	0	33636	
5009	0	33664	
5010	0	33688	
5011	0	33720	
5012	0	33756	
5013	0	33784	
5014	0	33800	
5015	0	33792	
5016	0	33800	
5017	0	33792	
5018	0	33784	
5019	0	33784	
5020	0	33792	
5021	0	33804	
5022	0	33808	
5023	0	33820	
5024	0	33836	
5025	0	33856	
5026	0	33856	
5027	0	33888	
5028	0	33912	
5029	0	33912	
5030	0	33928	
5031	0	33948	
5032	0	33960	
5033	0	33976	
5034	0	33984	
5035	0	33992	
5036	0	33992	
5037	0	33992	
5038	0	34000	
5039	0	34004	
5040	0	33996	
5041	0	34000	
5042	0	34016	
5043	0	34012	
5044	0	34008	
5045	0	34008	
5046	0	34000	
5047	0	34000	
5048	0	34024	
5049	0	34048	
5050	0	34064	
5051	0	34056	
5052	0	34056	
5053	0	34060	
5054	0	34060	
5055	0	34072	
5056	0	34080	
5057	0	34072	
5058	0	34072	
5059	0	34060	
5060	0	34072	
5061	0	34084	
5062	0	34112	
5063	0	34116	
5064	0	34112	
5065	0	34120	
5066	0	34124	
5067	0	34136	
5068	0	34152	
5069	0	34160	
5070	0	34216	
5071	0	34224	
5072	0	34240	
5073	0	34264	
5074	0	34288	
5075	0	34296	
5076	0	34288	
5077	0	34264	
5078	0	34264	
5079	0	34264	
5080	0	34264	
5081	0	34264	
5082	0	34284	
5083	0	34292	
5084	0	34304	
5085	0	34316	
5086	0	34312	
5087	0	34312	
5088	0	34320	
5089	0	34352	
5090	0	34376	
5091	0	34376	
5092	0	34392	
5093	0	34388	
5094	0	34400	
5095	0	34400	
5096	0	34408	
5097	0	34400	
5098	0	34400	
5099	0	34384	
5100	0	34360	
5101	0	34360	
5102	0	34376	
5103	0	34384	
5104	0	34392	
5105	0	34368	
5106	0	34348	
5107	0	34344	
5108	0	34344	
5109	0	34336	
5110	0	34344	
5111	0	34344	
5112	0	34336	
5113	0	34352	
5114	0	34344	
5115	0	34344	
5116	0	34336	
5117	0	34320	
5118	0	34304	
5119	0	34296	
5120	0	34288	
5121	0	34256	
5122	0	34224	
5123	0	34220	
5124	0	34208	
5125	0	34224	
5126	0	34232	
5127	0	34232	
5128	0	34226	
5129	0	34232	
5130	0	34232	
5131	0	34232	
5132	0	34216	
5133	0	34172	
5134	0	34128	
5135	0	34088	
5136	0	34072	
5137	0	34024	
5138	0	33992	
5139	0	33944	
5140	0	33920	
5141	0	33872	
5142	0	33824	
5143	0	33804	
5144	0	33768	
5145	0	33752	
5146	0	33720	
5147	0	33704	
5148	0	33696	
5149	0	33672	
5150	0	33656	
5151	0	33632	
5152	0	33624	
5153	0	33608	
5154	0	33568	
5155	0	33504	
5156	0	33472	
5157	0	33416	
5158	0	33400	
5159	0	33384	
5160	0	33360	
5161	0	33344	
5162	0	33316	
5163	0	33304	
5164	0	33276	
5165	0	33248	
5166	0	33240	
5167	0	33232	
5168	0	33224	
5169	0	33208	
5170	0	33192	
5171	0	33180	
5172	0	33136	
5173	0	33112	
5174	0	33104	
5175	0	33096	
5176	0	33088	
5177	0	33080	
5178	0	33072	
5179	0	33064	
5180	0	33048	
5181	0	33036	
5182	0	33008	
5183	0	32992	
5184	0	33000	
5185	0	33000	
5186	0	33000	
5187	0	33024	
5188	0	33032	
5189	0	33048	
5190	0	33056	
5191	0	33052	
5192	0	33048	
5193	0	33040	
5194	0	33048	
5195	0	33064	
5196	0	33040	
5197	0	33024	
5198	0	33008	
5199	0	32984	
5200	0	32976	
5201	0	32976	
5202	0	32984	
5203	0	32976	
5204	0	32976	
5205	0	32992	
5206	0	33008	
5207	0	33048	
5208	0	33064	
5209	0	33088	
5210	0	33104	
5211	0	33104	
5212	0	33120	
5213	0	33144	
5214	0	33144	
5215	0	33160	
5216	0	33136	
5217	0	33128	
5218	0	33112	
5219	0	33112	
5220	0	33104	
5221	0	33104	
5222	0	33104	
5223	0	33112	
5224	0	33120	
5225	0	33128	
5226	0	33148	
5227	0	33160	
5228	0	33176	
5229	0	33208	
5230	0	33196	
5231	0	33192	
5232	0	33200	
5233	0	33208	
5234	0	33232	
5235	0	33228	
5236	0	33224	
5237	0	33224	
5238	0	33208	
5239	0	33196	
5240	0	33196	
5241	0	33196	
5242	0	33208	
5243	0	33224	
5244	0	33240	
5245	0	33248	
5246	0	33272	
5247	0	33312	
5248	0	33348	
5249	0	33388	
5250	0	33408	
5251	0	33400	
5252	0	33400	
5253	0	33400	
5254	0	33420	
5255	0	33432	
5256	0	33416	
5257	0	33400	
5258	0	33384	
5259	0	33388	
5260	0	33404	
5261	0	33400	
5262	0	33408	
5263	0	33416	
5264	0	33408	
5265	0	33392	
5266	0	33392	
5267	0	33416	
5268	0	33440	
5269	0	33448	
5270	0	33464	
5271	0	33472	
5272	0	33472	
5273	0	33492	
5274	0	33480	
5275	0	33476	
5276	0	33480	
5277	0	33456	
5278	0	33432	
5279	0	33416	
5280	0	33392	
5281	0	33376	
5282	0	33344	
5283	0	33320	
5284	0	33304	
5285	0	33312	
5286	0	33312	
5287	0	33348	
5288	0	33392	
5289	0	33416	
5290	0	33424	
5291	0	33416	
5292	0	33420	
5293	0	33420	
5294	0	33404	
5295	0	33376	
5296	0	33360	
5297	0	33344	
5298	0	33320	
5299	0	33304	
5300	0	33288	
5301	0	33296	
5302	0	33288	
5303	0	33284	
5304	0	33276	
5305	0	33296	
5306	0	33296	
5307	0	33288	
5308	0	33312	
5309	0	33328	
5310	0	33352	
5311	0	33376	
5312	0	33392	
5313	0	33376	
5314	0	33384	
5315	0	33392	
5316	0	33392	
5317	0	33384	
5318	0	33352	
5319	0	33312	
5320	0	33284	
5321	0	33256	
5322	0	33248	
5323	0	33232	
5324	0	33228	
5325	0	33248	
5326	0	33272	
5327	0	33296	
5328	0	33312	
5329	0	33312	
5330	0	33312	
5331	0	33312	
5332	0	33328	
5333	0	33320	
5334	0	33304	
5335	0	33296	
5336	0	33276	
5337	0	33268	
5338	0	33248	
5339	0	33256	
5340	0	33272	
5341	0	33256	
5342	0	33256	
5343	0	33256	
5344	0	33264	
5345	0	33272	
5346	0	33276	
5347	0	33288	
5348	0	33304	
5349	0	33312	
5350	0	33336	
5351	0	33344	
5352	0	33376	
5353	0	33384	
5354	0	33392	
5355	0	33400	
5356	0	33388	
5357	0	33384	
5358	0	33376	
5359	0	33372	
5360	0	33376	
5361	0	33352	
5362	0	33344	
5363	0	33328	
5364	0	33328	
5365	0	33336	
5366	0	33328	
5367	0	33344	
5368	0	33360	
5369	0	33376	
5370	0	33376	
5371	0	33400	
5372	0	33392	
5373	0	33400	
5374	0	33388	
5375	0	33372	
5376	0	33360	
5377	0	33352	
5378	0	33344	
5379	0	33324	
5380	0	33304	
5381	0	33280	
5382	0	33264	
5383	0	33288	
5384	0	33280	
5385	0	33288	
5386	0	33288	
5387	0	33296	
5388	0	33308	
5389	0	33304	
5390	0	33304	
5391	0	33304	
5392	0	33312	
5393	0	33328	
5394	0	33332	
5395	0	33332	
5396	0	33332	
5397	0	33336	
5398	0	33348	
5399	0	33320	
5400	0	33304	
5401	0	33296	
5402	0	33296	
5403	0	33296	
5404	0	33296	
5405	0	33328	
5406	0	33352	
5407	0	33392	
5408	0	33440	
5409	0	33480	
5410	0	33512	
5411	0	33520	
5412	0	33544	
5413	0	33536	
5414	0	33528	
5415	0	33528	
5416	0	33528	
5417	0	33512	
5418	0	33472	
5419	0	33464	
5420	0	33448	
5421	0	33456	
5422	0	33472	
5423	0	33480	
5424	0	33496	
5425	0	33488	
5426	0	33496	
5427	0	33504	
5428	0	33512	
5429	0	33520	
5430	0	33512	
5431	0	33536	
5432	0	33552	
5433	0	33544	
5434	0	33544	
5435	0	33536	
5436	0	33528	
5437	0	33512	
5438	0	33496	
5439	0	33480	
5440	0	33472	
5441	0	33480	
5442	0	33464	
5443	0	33472	
5444	0	33460	
5445	0	33456	
5446	0	33444	
5447	0	33424	
5448	0	33420	
5449	0	33408	
5450	0	33400	
5451	0	33384	
5452	0	33376	
5453	0	33400	
5454	0	33412	
5455	0	33400	
5456	0	33400	
5457	0	33368	
5458	0	33352	
5459	0	33332	
5460	0	33308	
5461	0	33296	
5462	0	33280	
5463	0	33276	
5464	0	33304	
5465	0	33320	
5466	0	33328	
5467	0	33356	
5468	0	33360	
5469	0	33360	
5470	0	33376	
5471	0	33400	
5472	0	33400	
5473	0	33400	
5474	0	33384	
5475	0	33384	
5476	0	33368	
5477	0	33352	
5478	0	33344	
5479	0	33328	
5480	0	33312	
5481	0	33288	
5482	0	33272	
5483	0	33256	
5484	0	33264	
5485	0	33272	
5486	0	33272	
5487	0	33292	
5488	0	33288	
5489	0	33304	
5490	0	33312	
5491	0	33328	
5492	0	33328	
5493	0	33320	
5494	0	33304	
5495	0	33288	
5496	0	33272	
5497	0	33272	
5498	0	33252	
5499	0	33216	
5500	0	33192	
5501	0	33176	
5502	0	33176	
5503	0	33176	
5504	0	33164	
5505	0	33172	
5506	0	33176	
5507	0	33192	
5508	0	33216	
5509	0	33208	
5510	0	33220	
5511	0	33224	
5512	0	33216	
5513	0	33208	
5514	0	33184	
5515	0	33184	
5516	0	33176	
5517	0	33124	
5518	0	33088	
5519	0	33024	
5520	0	32968	
5521	0	32896	
5522	0	32832	
5523	0	32744	
5524	0	32672	
5525	0	32592	
5526	0	32488	
5527	0	32380	
5528	0	32264	
5529	0	32128	
5530	0	32004	
5531	0	31944	
5532	0	31928	
5533	0	31936	
5534	0	31944	
5535	0	31960	
5536	0	32000	
5537	0	32064	
5538	0	32148	
5539	0	32176	
5540	0	32224	
5541	0	32296	
5542	0	32448	
5543	0	32672	
5544	0	32936	
5545	0	33248	
5546	0	33664	
5547	0	34168	
5548	0	34736	
5549	0	35408	
5550	0	36152	
5551	0	36980	
5552	0	37880	
5553	0	38824	
5554	0	39704	
5555	0	40528	
5556	0	41312	
5557	0	42016	
5558	0	42688	
5559	0	43328	
5560	0	43864	
5561	0	44248	
5562	0	44488	
5563	0	44576	
5564	0	44456	
5565	0	44112	
5566	0	43680	
5567	0	43168	
5568	0	42540	
5569	0	41808	
5570	0	41024	
5571	0	40200	
5572	0	39360	
5573	0	38512	
5574	0	37712	
5575	0	36928	
5576	0	36240	
5577	0	35664	
5578	0	35208	
5579	0	34848	
5580	0	34592	
5581	0	34408	
5582	0	34264	
5583	0	34144	
5584	0	33992	
5585	0	33876	
5586	0	33736	
5587	0	33592	
5588	0	33432	
5589	0	33248	
5590	0	33068	
5591	0	32896	
5592	0	32744	
5593	0	32616	
5594	0	32488	
5595	0	32376	
5596	0	32256	
5597	0	32120	
5598	0	32024	
5599	0	31936	
5600	0	31840	
5601	0	31768	
5602	0	31696	
5603	0	31656	
5604	0	31616	
5605	0	31576	
5606	0	31568	
5607	0	31560	
5608	0	31552	
5609	0	31536	
5610	0	31520	
5611	0	31524	
5612	0	31512	
5613	0	31496	
5614	0	31480	
5615	0	31476	
5616	0	31472	
5617	0	31460	
5618	0	31448	
5619	0	31456	
5620	0	31432	
5621	0	31440	
5622	0	31424	
5623	0	31416	
5624	0	31408	
5625	0	31424	
5626	0	31440	
5627	0	31464	
5628	0	31480	
5629	0	31496	
5630	0	31536	
5631	0	31564	
5632	0	31576	
5633	0	31584	
5634	0	31576	
5635	0	31592	
5636	0	31588	
5637	0	31584	
5638	0	31576	
5639	0	31576	
5640	0	31584	
5641	0	31592	
5642	0	31592	
5643	0	31580	
5644	0	31584	
5645	0	31604	
5646	0	31608	
5647	0	31616	
5648	0	31624	
5649	0	31640	
5650	0	31660	
5651	0	31668	
5652	0	31688	
5653	0	31688	
5654	0	31680	
5655	0	31664	
5656	0	31640	
5657	0	31632	
5658	0	31640	
5659	0	31624	
5660	0	31616	
5661	0	31628	
5662	0	31648	
5663	0	31656	
5664	0	31672	
5665	0	31696	
5666	0	31720	
5667	0	31744	
5668	0	31752	
5669	0	31776	
5670	0	31808	
5671	0	31816	
5672	0	31832	
5673	0	31832	
5674	0	31848	
5675	0	31856	
5676	0	31860	
5677	0	31848	
5678	0	31840	
5679	0	31840	
5680	0	31840	
5681	0	31844	
5682	0	31844	
5683	0	31880	
5684	0	31904	
5685	0	31940	
5686	0	31960	
5687	0	31976	
5688	0	31980	
5689	0	31984	
5690	0	32028	
5691	0	32032	
5692	0	32048	
5693	0	32048	
5694	0	32032	
5695	0	32032	
5696	0	32032	
5697	0	32024	
5698	0	32040	
5699	0	32032	
5700	0	32040	
5701	0	32048	
5702	0	32040	
5703	0	32032	
5704	0	32032	
5705	0	32032	
5706	0	32056	
5707	0	32072	
5708	0	32080	
5709	0	32092	
5710	0	32104	
5711	0	32124	
5712	0	32120	
5713	0	32124	
5714	0	32144	
5715	0	32140	
5716	0	32136	
5717	0	32144	
5718	0	32144	
5719	0	32144	
5720	0	32152	
5721	0	32144	
5722	0	32128	
5723	0	32136	
5724	0	32144	
5725	0	32160	
5726	0	32184	
5727	0	32208	
5728	0	32216	
5729	0	32232	
5730	0	32256	
5731	0	32256	
5732	0	32276	
5733	0	32296	
5734	0	32312	
5735	0	32320	
5736	0	32328	
5737	0	32324	
5738	0	32348	
5739	0	32336	
5740	0	32376	
5741	0	32400	
5742	0	32424	
5743	0	32440	
5744	0	32456	
5745	0	32464	
5746	0	32484	
5747	0	32504	
5748	0	32544	
5749	0	32580	
5750	0	32608	
5751	0	32632	
5752	0	32640	
5753	0	32644	
5754	0	32636	
5755	0	32624	
5756	0	32640	
5757	0	32648	
5758	0	32664	
5759	0	32672	
5760	0	32672	
5761	0	32652	
5762	0	32632	
5763	0	32632	
5764	0	32640	
5765	0	32656	
5766	0	32656	
5767	0	32680	
5768	0	32680	
5769	0	32688	
5770	0	32704	
5771	0	32704	
5772	0	32704	
5773	0	32704	
5774	0	32688	
5775	0	32680	
5776	0	32656	
5777	0	32640	
5778	0	32632	
5779	0	32628	
5780	0	32616	
5781	0	32608	
5782	0	32616	
5783	0	32620	
5784	0	32640	
5785	0	32648	
5786	0	32652	
5787	0	32656	
5788	0	32648	
5789	0	32656	
5790	0	32656	
5791	0	32652	
5792	0	32656	
5793	0	32652	
5794	0	32648	
5795	0	32624	
5796	0	32600	
5797	0	32568	
5798	0	32544	
5799	0	32512	
5800	0	32496	
5801	0	32448	
5802	0	32392	
5803	0	32344	
5804	0	32320	
5805	0	32312	
5806	0	32288	
5807	0	32272	
5808	0	32252	
5809	0	32216	
5810	0	32192	
5811	0	32152	
5812	0	32128	
5813	0	32096	
5814	0	32064	
5815	0	32016	
5816	0	31968	
5817	0	31912	
5818	0	31880	
5819	0	31856	
5820	0	31820	
5821	0	31800	
5822	0	31776	
5823	0	31736	
5824	0	31704	
5825	0	31680	
5826	0	31672	
5827	0	31680	
5828	0	31672	
5829	0	31672	
5830	0	31648	
5831	0	31628	
5832	0	31616	
5833	0	31592	
5834	0	31572	
5835	0	31568	
5836	0	31556	
5837	0	31528	
5838	0	31488	
5839	0	31456	
5840	0	31424	
5841	0	31384	
5842	0	31368	
5843	0	31376	
5844	0	31352	
5845	0	31344	
5846	0	31340	
5847	0	31360	
5848	0	31368	
5849	0	31384	
5850	0	31404	
5851	0	31408	
5852	0	31400	
5853	0	31400	
5854	0	31392	
5855	0	31384	
5856	0	31392	
5857	0	31376	
5858	0	31376	
5859	0	31368	
5860	0	31336	
5861	0	31336	
5862	0	31300	
5863	0	31312	
5864	0	31320	
5865	0	31320	
5866	0	31308	
5867	0	31328	
5868	0	31336	
5869	0	31368	
5870	0	31396	
5871	0	31416	
5872	0	31416	
5873	0	31416	
5874	0	31400	
5875	0	31400	
5876	0	31400	
5877	0	31408	
5878	0	31408	
5879	0	31404	
5880	0	31400	
5881	0	31384	
5882	0	31392	
5883	0	31392	
5884	0	31416	
5885	0	31416	
5886	0	31440	
5887	0	31456	
5888	0	31480	
5889	0	31504	
5890	0	31544	
5891	0	31552	
5892	0	31576	
5893	0	31576	
5894	0	31584	
5895	0	31576	
5896	0	31552	
5897	0	31552	
5898	0	31544	
5899	0	31560	
5900	0	31544	
5901	0	31528	
5902	0	31536	
5903	0	31528	
5904	0	31532	
5905	0	31568	
5906	0	31592	
5907	0	31608	
5908	0	31624	
5909	0	31648	
5910	0	31688	
5911	0	31704	
5912	0	31712	
5913	0	31720	
5914	0	31724	
5915	0	31724	
5916	0	31736	
5917	0	31744	
5918	0	31752	
5919	0	31760	
5920	0	31776	
5921	0	31776	
5922	0	31752	
5923	0	31736	
5924	0	31736	
5925	0	31760	
5926	0	31792	
5927	0	31808	
5928	0	31848	
5929	0	31856	
5930	0	31880	
5931	0	31900	
5932	0	31896	
5933	0	31924	
5934	0	31936	
5935	0	31920	
5936	0	31920	
5937	0	31920	
5938	0	31936	
5939	0	31944	
5940	0	31952	
5941	0	31960	
5942	0	31952	
5943	0	31944	
5944	0	31948	
5945	0	31952	
5946	0	31968	
5947	0	31984	
5948	0	32016	
5949	0	32044	
5950	0	32042	
5951	0	32064	
5952	0	32064	
5953	0	32080	
5954	0	32088	
5955	0	32088	
5956	0	32064	
5957	0	32064	
5958	0	32024	
5959	0	32028	
5960	0	32016	
5961	0	32000	
5962	0	32016	
5963	0	32032	
5964	0	32028	
5965	0	32024	
5966	0	32028	
5967	0	32036	
5968	0	32048	
5969	0	32064	
5970	0	32072	
5971	0	32056	
5972	0	32044	
5973	0	32048	
5974	0	32032	
5975	0	32056	
5976	0	32064	
5977	0	32064	
5978	0	32056	
5979	0	32048	
5980	0	32032	
5981	0	32036	
5982	0	32048	
5983	0	32040	
5984	0	32056	
5985	0	32064	
5986	0	32080	
5987	0	32096	
5988	0	32120	
5989	0	32128	
5990	0	32140	
5991	0	32156	
5992	0	32144	
5993	0	32156	
5994	0	32160	
5995	0	32176	
5996	0	32184	
5997	0	32192	
5998	0	32196	
5999	0	32188	
6000	0	32184	
6001	0	32168	
6002	0	32160	
6003	0	32168	
6004	0	32176	
6005	0	32176	
6006	0	32176	
6007	0	32192	
6008	0	32200	
6009	0	32224	
6010	0	32224	
6011	0	32224	
6012	0	32248	
6013	0	32256	
6014	0	32280	
6015	0	32280	
6016	0	32272	
6017	0	32264	
6018	0	32248	
6019	0	32232	
6020	0	32240	
6021	0	32232	
6022	0	32256	
6023	0	32272	
6024	0	32272	
6025	0	32296	
6026	0	32312	
6027	0	32320	
6028	0	32320	
6029	0	32336	
6030	0	32328	
6031	0	32344	
6032	0	32344	
6033	0	32368	
6034	0	32384	
6035	0	32384	
6036	0	32392	
6037	0	32376	
6038	0	32372	
6039	0	32352	
6040	0	32340	
6041	0	32336	
6042	0	32344	
6043	0	32328	
6044	0	32312	
6045	0	32320	
6046	0	32332	
6047	0	32344	
6048	0	32344	
6049	0	32352	
6050	0	32368	
6051	0	32352	
6052	0	32360	
6053	0	32364	
6054	0	32388	
6055	0	32408	
6056	0	32416	
6057	0	32416	
6058	0	32408	
6059	0	32432	
6060	0	32448	
6061	0	32456	
6062	0	32464	
6063	0	32456	
6064	0	32480	
6065	0	32496	
6066	0	32520	
6067	0	32572	
6068	0	32600	
6069	0	32636	
6070	0	32664	
6071	0	32696	
6072	0	32736	
6073	0	32768	
6074	0	32768	
6075	0	32768	
6076	0	32776	
6077	0	32760	
6078	0	32748	
6079	0	32736	
6080	0	32728	
6081	0	32732	
6082	0	32736	
6083	0	32740	
6084	0	32764	
6085	0	32792	
6086	0	32804	
6087	0	32816	
6088	0	32848	
6089	0	32860	
6090	0	32888	
6091	0	32888	
6092	0	32882	
6093	0	32888	
6094	0	32888	
6095	0	32896	
6096	0	32896	
6097	0	32892	
6098	0	32920	
6099	0	32928	
6100	0	32936	
6101	0	32944	
6102	0	32952	
6103	0	32960	
6104	0	32968	
6105	0	32968	
6106	0	32968	
6107	0	32968	
6108	0	33000	
6109	0	33024	
6110	0	33036	
6111	0	33040	
6112	0	33024	
6113	0	33016	
6114	0	33040	
6115	0	33032	
6116	0	33036	
6117	0	33040	
6118	0	33040	
6119	0	33056	
6120	0	33056	
6121	0	33064	
6122	0	33060	
6123	0	33072	
6124	0	33080	
6125	0	33096	
6126	0	33120	
6127	0	33136	
6128	0	33152	
6129	0	33168	
6130	0	33200	
6131	0	33224	
6132	0	33232	
6133	0	33236	
6134	0	33248	
6135	0	33216	
6136	0	33224	
6137	0	33224	
6138	0	33216	
6139	0	33216	
6140	0	33184	
6141	0	33172	
6142	0	33176	
6143	0	33168	
6144	0	33152	
6145	0	33160	
6146	0	33176	
6147	0	33192	
6148	0	33196	
6149	0	33216	
6150	0	33232	
6151	0	33240	
6152	0	33240	
6153	0	33216	
6154	0	33220	
6155	0	33200	
6156	0	33196	
6157	0	33184	
6158	0	33152	
6159	0	33120	
6160	0	33088	
6161	0	33088	
6162	0	33088	
6163	0	33088	
6164	0	33088	
6165	0	33112	
6166	0	33104	
6167	0	33112	
6168	0	33112	
6169	0	33104	
6170	0	33096	
6171	0	33096	
6172	0	33096	
6173	0	33096	
6174	0	33088	
6175	0	33076	
6176	0	33056	
6177	0	33040	
6178	0	33028	
6179	0	33016	
6180	0	32992	
6181	0	32968	
6182	0	32904	
6183	0	32852	
6184	0	32776	
6185	0	32712	
6186	0	32640	
6187	0	32564	
6188	0	32488	
6189	0	32368	
6190	0	32256	
6191	0	32120	
6192	0	31992	
6193	0	31896	
6194	0	31840	
6195	0	31832	
6196	0	31844	
6197	0	31864	
6198	0	31872	
6199	0	31884	
6200	0	31900	
6201	0	31928	
6202	0	32016	
6203	0	32160	
6204	0	32392	
6205	0	32696	
6206	0	33072	
6207	0	33512	
6208	0	34056	
6209	0	34728	
6210	0	35476	
6211	0	36304	
6212	0	37224	
6213	0	38172	
6214	0	39168	
6215	0	40200	
6216	0	41224	
6217	0	42204	
6218	0	43120	
6219	0	43976	
6220	0	44792	
6221	0	45496	
6222	0	46088	
6223	0	46512	
6224	0	46728	
6225	0	46752	
6226	0	46536	
6227	0	46136	
6228	0	45608	
6229	0	44976	
6230	0	44288	
6231	0	43512	
6232	0	42656	
6233	0	41784	
6234	0	40880	
6235	0	39952	
6236	0	39040	
6237	0	38176	
6238	0	37376	
6239	0	36640	
6240	0	36032	
6241	0	35536	
6242	0	35152	
6243	0	34864	
6244	0	34616	
6245	0	34408	
6246	0	34208	
6247	0	34024	
6248	0	33824	
6249	0	33608	
6250	0	33404	
6251	0	33180	
6252	0	32976	
6253	0	32800	
6254	0	32608	
6255	0	32440	
6256	0	32280	
6257	0	32136	
6258	0	32016	
6259	0	31944	
6260	0	31864	
6261	0	31796	
6262	0	31736	
6263	0	31696	
6264	0	31672	
6265	0	31664	
6266	0	31660	
6267	0	31640	
6268	0	31616	
6269	0	31616	
6270	0	31608	
6271	0	31596	
6272	0	31608	
6273	0	31592	
6274	0	31604	
6275	0	31600	
6276	0	31584	
6277	0	31576	
6278	0	31560	
6279	0	31544	
6280	0	31544	
6281	0	31544	
6282	0	31536	
6283	0	31552	
6284	0	31560	
6285	0	31588	
6286	0	31600	
6287	0	31628	
6288	0	31648	
6289	0	31660	
6290	0	31684	
6291	0	31712	
6292	0	31720	
6293	0	31736	
6294	0	31752	
6295	0	31760	
6296	0	31784	
6297	0	31776	
6298	0	31776	
6299	0	31792	
6300	0	31804	
6301	0	31816	
6302	0	31832	
6303	0	31856	
6304	0	31884	
6305	0	31896	
6306	0	31936	
6307	0	31948	
6308	0	31984	
6309	0	31980	
6310	0	32000	
6311	0	32016	
6312	0	32024	
6313	0	32032	
6314	0	32048	
6315	0	32080	
6316	0	32064	
6317	0	32072	
6318	0	32072	
6319	0	32080	
6320	0	32080	
6321	0	32096	
6322	0	32096	
6323	0	32120	
6324	0	32136	
6325	0	32140	
6326	0	32168	
6327	0	32188	
6328	0	32224	
6329	0	32256	
6330	0	32280	
6331	0	32304	
6332	0	32320	
6333	0	32344	
6334	0	32364	
6335	0	32360	
6336	0	32368	
6337	0	32364	
6338	0	32364	
6339	0	32376	
6340	0	32376	
6341	0	32380	
6342	0	32400	
6343	0	32448	
6344	0	32472	
6345	0	32496	
6346	0	32520	
6347	0	32544	
6348	0	32560	
6349	0	32568	
6350	0	32600	
6351	0	32636	
6352	0	32648	
6353	0	32656	
6354	0	32676	
6355	0	32680	
6356	0	32676	
6357	0	32680	
6358	0	32680	
6359	0	32688	
6360	0	32696	
6361	0	32696	
6362	0	32688	
6363	0	32672	
6364	0	32692	
6365	0	32708	
6366	0	32724	
6367	0	32736	
6368	0	32764	
6369	0	32780	
6370	0	32776	
6371	0	32804	
6372	0	32808	
6373	0	32840	
6374	0	32840	
6375	0	32836	
6376	0	32836	
6377	0	32816	
6378	0	32796	
6379	0	32800	
6380	0	32800	
6381	0	32800	
6382	0	32808	
6383	0	32808	
6384	0	32808	
6385	0	32820	
6386	0	32848	
6387	0	32856	
6388	0	32860	
6389	0	32876	
6390	0	32896	
6391	0	32904	
6392	0	32920	
6393	0	32928	
6394	0	32924	
6395	0	32936	
6396	0	32944	
6397	0	32936	
6398	0	32944	
6399	0	32944	
6400	0	32940	
6401	0	32952	
6402	0	32960	
6403	0	32976	
6404	0	32992	
6405	0	33000	
6406	0	33024	
6407	0	33048	
6408	0	33064	
6409	0	33080	
6410	0	33096	
6411	0	33104	
6412	0	33128	
6413	0	33136	
6414	0	33160	
6415	0	33144	
6416	0	33144	
6417	0	33136	
6418	0	33128	
6419	0	33120	
6420	0	33088	
6421	0	33088	
6422	0	33088	
6423	0	33104	
6424	0	33080	
6425	0	33100	
6426	0	33116	
6427	0	33104	
6428	0	33112	
6429	0	33120	
6430	0	33136	
6431	0	33148	
6432	0	33160	
6433	0	33160	
6434	0	33144	
6435	0	33132	
6436	0	33112	
6437	0	33104	
6438	0	33080	
6439	0	33072	
6440	0	33064	
6441	0	33056	
6442	0	33040	
6443	0	33036	
6444	0	33012	
6445	0	32992	
6446	0	32976	
6447	0	32976	
6448	0	32980	
6449	0	33000	
6450	0	33000	
6451	0	33000	
6452	0	33000	
6453	0	32984	
6454	0	32952	
6455	0	32936	
6456	0	32904	
6457	0	32888	
6458	0	32856	
6459	0	32824	
6460	0	32808	
6461	0	32764	
6462	0	32704	
6463	0	32672	
6464	0	32632	
6465	0	32584	
6466	0	32556	
6467	0	32536	
6468	0	32528	
6469	0	32520	
6470	0	32504	
6471	0	32488	
6472	0	32452	
6473	0	32424	
6474	0	32400	
6475	0	32376	
6476	0	32344	
6477	0	32296	
6478	0	32256	
6479	0	32216	
6480	0	32168	
6481	0	32152	
6482	0	32124	
6483	0	32104	
6484	0	32080	
6485	0	32072	
6486	0	32080	
6487	0	32072	
6488	0	32072	
6489	0	32060	
6490	0	32048	
6491	0	32024	
6492	0	32024	
6493	0	32024	
6494	0	32008	
6495	0	31992	
6496	0	31968	
6497	0	31952	
6498	0	31944	
6499	0	31928	
6500	0	31912	
6501	0	31888	
6502	0	31872	
6503	0	31872	
6504	0	31860	
6505	0	31880	
6506	0	31896	
6507	0	31912	
6508	0	31928	
6509	0	31960	
6510	0	31992	
6511	0	31984	
6512	0	32000	
6513	0	32016	
6514	0	32016	
6515	0	32016	
6516	0	32000	
6517	0	31984	
6518	0	31984	
6519	0	31964	
6520	0	31968	
6521	0	31984	
6522	0	31976	
6523	0	31984	
6524	0	31976	
6525	0	31984	
6526	0	31984	
6527	0	32008	
6528	0	32032	
6529	0	32040	
6530	0	32076	
6531	0	32088	
6532	0	32096	
6533	0	32104	
6534	0	32108	
6535	0	32116	
6536	0	32136	
6537	0	32140	
6538	0	32128	
6539	0	32104	
6540	0	32104	
6541	0	32104	
6542	0	32112	
6543	0	32124	
6544	0	32136	
6545	0	32160	
6546	0	32184	
6547	0	32224	
6548	0	32248	
6549	0	32264	
6550	0	32272	
6551	0	32264	
6552	0	32288	
6553	0	32288	
6554	0	32296	
6555	0	32308	
6556	0	32320	
6557	0	32320	
6558	0	32320	
6559	0	32328	
6560	0	32328	
6561	0	32328	
6562	0	32328	
6563	0	32344	
6564	0	32352	
6565	0	32364	
6566	0	32380	
6567	0	32408	
6568	0	32424	
6569	0	32448	
6570	0	32464	
6571	0	32456	
6572	0	32472	
6573	0	32480	
6574	0	32492	
6575	0	32488	
6576	0	32464	
6577	0	32464	
6578	0	32460	
6579	0	32448	
6580	0	32448	
6581	0	32432	
6582	0	32440	
6583	0	32456	
6584	0	32464	
6585	0	32468	
6586	0	32480	
6587	0	32496	
6588	0	32504	
6589	0	32520	
6590	0	32536	
6591	0	32544	
6592	0	32552	
6593	0	32544	
6594	0	32544	
6595	0	32528	
6596	0	32536	
6597	0	32536	
6598	0	32528	
6599	0	32536	
6600	0	32548	
6601	0	32544	
6602	0	32532	
6603	0	32552	
6604	0	32544	
6605	0	32560	
6606	0	32560	
6607	0	32576	
6608	0	32570	
6609	0	32600	
6610	0	32616	
6611	0	32636	
6612	0	32636	
6613	0	32656	
6614	0	32656	
6615	0	32656	
6616	0	32648	
6617	0	32632	
6618	0	32608	
6619	0	32608	
6620	0	32600	
6621	0	32588	
6622	0	32576	
6623	0	32584	
6624	0	32584	
6625	0	32592	
6626	0	32600	
6627	0	32612	
6628	0	32624	
6629	0	32632	
6630	0	32648	
6631	0	32664	
6632	0	32672	
6633	0	32680	
6634	0	32672	
6635	0	32664	
6636	0	32632	
6637	0	32632	
6638	0	32608	
6639	0	32592	
6640	0	32588	
6641	0	32576	
6642	0	32568	
6643	0	32552	
6644	0	32552	
6645	0	32554	
6646	0	32568	
6647	0	32588	
6648	0	32608	
6649	0	32632	
6650	0	32632	
6651	0	32640	
6652	0	32656	
6653	0	32664	
6654	0	32656	
6655	0	32664	
6656	0	32664	
6657	0	32640	
6658	0	32648	
6659	0	32640	
6660	0	32636	
6661	0	32620	
6662	0	32608	
6663	0	32604	
6664	0	32600	
6665	0	32616	
6666	0	32632	
6667	0	32664	
6668	0	32672	
6669	0	32688	
6670	0	32692	
6671	0	32684	
6672	0	32688	
6673	0	32692	
6674	0	32716	
6675	0	32696	
6676	0	32704	
6677	0	32704	
6678	0	32672	
6679	0	32656	
6680	0	32640	
6681	0	32640	
6682	0	32636	
6683	0	32636	
6684	0	32648	
6685	0	32656	
6686	0	32656	
6687	0	32680	
6688	0	32692	
6689	0	32704	
6690	0	32712	
6691	0	32720	
6692	0	32728	
6693	0	32736	
6694	0	32728	
6695	0	32728	
6696	0	32728	
6697	0	32704	
6698	0	32704	
6699	0	32688	
6700	0	32688	
6701	0	32672	
6702	0	32680	
6703	0	32680	
6704	0	32696	
6705	0	32712	
6706	0	32704	
6707	0	32728	
6708	0	32736	
6709	0	32752	
6710	0	32752	
6711	0	32760	
6712	0	32784	
6713	0	32792	
6714	0	32792	
6715	0	32784	
6716	0	32768	
6717	0	32756	
6718	0	32744	
6719	0	32736	
6720	0	32712	
6721	0	32704	
6722	0	32672	
6723	0	32672	
6724	0	32668	
6725	0	32672	
6726	0	32664	
6727	0	32672	
6728	0	32664	
6729	0	32664	
6730	0	32664	
6731	0	32672	
6732	0	32668	
6733	0	32656	
6734	0	32656	
6735	0	32648	
6736	0	32632	
6737	0	32600	
6738	0	32576	
6739	0	32560	
6740	0	32540	
6741	0	32544	
6742	0	32552	
6743	0	32560	
6744	0	32576	
6745	0	32596	
6746	0	32608	
6747	0	32624	
6748	0	32640	
6749	0	32656	
6750	0	32692	
6751	0	32720	
6752	0	32736	
6753	0	32756	
6754	0	32776	
6755	0	32776	
6756	0	32776	
6757	0	32776	
6758	0	32796	
6759	0	32808	
6760	0	32800	
6761	0	32800	
6762	0	32792	
6763	0	32772	
6764	0	32760	
6765	0	32776	
6766	0	32792	
6767	0	32808	
6768	0	32840	
6769	0	32864	
6770	0	32860	
6771	0	32872	
6772	0	32876	
6773	0	32872	
6774	0	32876	
6775	0	32848	
6776	0	32836	
6777	0	32820	
6778	0	32800	
6779	0	32800	
6780	0	32788	
6781	0	32792	
6782	0	32808	
6783	0	32800	
6784	0	32816	
6785	0	32824	
6786	0	32840	
6787	0	32832	
6788	0	32836	
6789	0	32840	
6790	0	32856	
6791	0	32848	
6792	0	32848	
6793	0	32848	
6794	0	32840	
6795	0	32832	
6796	0	32816	
6797	0	32800	
6798	0	32800	
6799	0	32768	
6800	0	32760	
6801	0	32776	
6802	0	32776	
6803	0	32784	
6804	0	32800	
6805	0	32804	
6806	0	32808	
6807	0	32812	
6808	0	32832	
6809	0	32840	
6810	0	32852	
6811	0	32872	
6812	0	32872	
6813	0	32880	
6814	0	32872	
6815	0	32872	
6816	0	32856	
6817	0	32864	
6818	0	32856	
6819	0	32852	
6820	0	32852	
6821	0	32832	
6822	0	32824	
6823	0	32816	
6824	0	32804	
6825	0	32800	
6826	0	32788	
6827	0	32808	
6828	0	32820	
6829	0	32840	
6830	0	32848	
6831	0	32864	
6832	0	32848	
6833	0	32864	
6834	0	32856	
6835	0	32840	
6836	0	32832	
6837	0	32840	
6838	0	32816	
6839	0	32800	
6840	0	32792	
6841	0	32800	
6842	0	32800	
6843	0	32776	
6844	0	32772	
6845	0	32784	
6846	0	32768	
6847	0	32792	
6848	0	32784	
6849	0	32784	
6850	0	32800	
6851	0	32800	
6852	0	32800	
6853	0	32816	
6854	0	32824	
6855	0	32824	
6856	0	32816	
6857	0	32784	
6858	0	32772	
6859	0	32772	
6860	0	32736	
6861	0	32724	
6862	0	32704	
6863	0	32688	
6864	0	32672	
6865	0	32672	
6866	0	32632	
6867	0	32592	
6868	0	32544	
6869	0	32480	
6870	0	32408	
6871	0	32348	
6872	0	32264	
6873	0	32152	
6874	0	32012	
6875	0	31872	
6876	0	31740	
6877	0	31616	
6878	0	31532	
6879	0	31488	
6880	0	31480	
6881	0	31496	
6882	0	31516	
6883	0	31520	
6884	0	31540	
6885	0	31584	
6886	0	31688	
6887	0	31864	
6888	0	32120	
6889	0	32448	
6890	0	32840	
6891	0	33276	
6892	0	33816	
6893	0	34456	
6894	0	35200	
6895	0	36020	
6896	0	36908	
6897	0	37832	
6898	0	38808	
6899	0	39800	
6900	0	40816	
6901	0	41808	
6902	0	42720	
6903	0	43624	
6904	0	44424	
6905	0	45160	
6906	0	45808	
6907	0	46288	
6908	0	46528	
6909	0	46576	
6910	0	46456	
6911	0	46088	
6912	0	45576	
6913	0	44968	
6914	0	44288	
6915	0	43544	
6916	0	42744	
6917	0	41896	
6918	0	40992	
6919	0	40048	
6920	0	39112	
6921	0	38224	
6922	0	37396	
6923	0	36680	
6924	0	36016	
6925	0	35496	
6926	0	35048	
6927	0	34688	
6928	0	34384	
6929	0	34136	
6930	0	33912	
6931	0	33688	
6932	0	33472	
6933	0	33240	
6934	0	33024	
6935	0	32808	
6936	0	32584	
6937	0	32360	
6938	0	32152	
6939	0	31968	
6940	0	31816	
6941	0	31696	
6942	0	31616	
6943	0	31532	
6944	0	31480	
6945	0	31424	
6946	0	31400	
6947	0	31384	
6948	0	31384	
6949	0	31372	
6950	0	31360	
6951	0	31336	
6952	0	31328	
6953	0	31320	
6954	0	31304	
6955	0	31288	
6956	0	31280	
6957	0	31280	
6958	0	31272	
6959	0	31256	
6960	0	31232	
6961	0	31216	
6962	0	31200	
6963	0	31216	
6964	0	31224	
6965	0	31240	
6966	0	31240	
6967	0	31268	
6968	0	31288	
6969	0	31312	
6970	0	31320	
6971	0	31352	
6972	0	31384	
6973	0	31392	
6974	0	31408	
6975	0	31392	
6976	0	31400	
6977	0	31384	
6978	0	31384	
6979	0	31388	
6980	0	31404	
6981	0	31424	
6982	0	31424	
6983	0	31424	
6984	0	31472	
6985	0	31480	
6986	0	31504	
6987	0	31520	
6988	0	31552	
6989	0	31560	
6990	0	31576	
6991	0	31600	
6992	0	31624	
6993	0	31648	
6994	0	31656	
6995	0	31648	
6996	0	31632	
6997	0	31624	
6998	0	31624	
6999	0	31616	
7000	0	31608	
7001	0	31608	
7002	0	31608	
7003	0	31616	
7004	0	31632	
7005	0	31648	
7006	0	31648	
7007	0	31648	
7008	0	31680	
7009	0	31692	
7010	0	31716	
7011	0	31728	
7012	0	31736	
7013	0	31732	
7014	0	31736	
7015	0	31732	
7016	0	31728	
7017	0	31720	
7018	0	31700	
7019	0	31704	
7020	0	31724	
7021	0	31728	
7022	0	31720	
7023	0	31736	
7024	0	31768	
7025	0	31768	
7026	0	31788	
7027	0	31816	
7028	0	31840	
7029	0	31848	
7030	0	31860	
7031	0	31880	
7032	0	31884	
7033	0	31880	
7034	0	31880	
7035	0	31872	
7036	0	31880	
7037	0	31872	
7038	0	31880	
7039	0	31896	
7040	0	31900	
7041	0	31904	
7042	0	31908	
7043	0	31904	
7044	0	31928	
7045	0	31936	
7046	0	31968	
7047	0	32000	
7048	0	32032	
7049	0	32056	
7050	0	32072	
7051	0	32088	
7052	0	32096	
7053	0	32096	
7054	0	32112	
7055	0	32112	
7056	0	32120	
7057	0	32120	
7058	0	32124	
7059	0	32136	
7060	0	32124	
7061	0	32136	
7062	0	32136	
7063	0	32152	
7064	0	32160	
7065	0	32176	
7066	0	32176	
7067	0	32184	
7068	0	32204	
7069	0	32216	
7070	0	32240	
7071	0	32240	
7072	0	32264	
7073	0	32272	
7074	0	32300	
7075	0	32304	
7076	0	32296	
7077	0	32280	
7078	0	32248	
7079	0	32228	
7080	0	32208	
7081	0	32208	
7082	0	32208	
7083	0	32216	
7084	0	32236	
7085	0	32248	
7086	0	32264	
7087	0	32280	
7088	0	32300	
7089	0	32312	
7090	0	32336	
7091	0	32344	
7092	0	32360	
7093	0	32368	
7094	0	32376	
7095	0	32376	
7096	0	32384	
7097	0	32380	
7098	0	32368	
7099	0	32380	
7100	0	32380	
7101	0	32376	
7102	0	32384	
7103	0	32392	
7104	0	32408	
7105	0	32408	
7106	0	32416	
7107	0	32416	
7108	0	32416	
7109	0	32416	
7110	0	32436	
7111	0	32448	
7112	0	32464	
7113	0	32480	
7114	0	32472	
7115	0	32452	
7116	0	32440	
7117	0	32416	
7118	0	32424	
7119	0	32416	
7120	0	32404	
7121	0	32416	
7122	0	32384	
7123	0	32368	
7124	0	32360	
7125	0	32360	
7126	0	32376	
7127	0	32384	
7128	0	32392	
7129	0	32404	
7130	0	32408	
7131	0	32424	
7132	0	32424	
7133	0	32416	
7134	0	32408	
7135	0	32380	
7136	0	32384	
7137	0	32352	
7138	0	32328	
7139	0	32296	
7140	0	32292	
7141	0	32296	
7142	0	32280	
7143	0	32284	
7144	0	32264	
7145	0	32252	
7146	0	32240	
7147	0	32240	
7148	0	32232	
7149	0	32212	
7150	0	32200	
7151	0	32176	
7152	0	32152	
7153	0	32120	
7154	0	32096	
7155	0	32064	
7156	0	32040	
7157	0	32008	
7158	0	31968	
7159	0	31936	
7160	0	31912	
7161	0	31864	
7162	0	31832	
7163	0	31824	
7164	0	31816	
7165	0	31808	
7166	0	31808	
7167	0	31800	
7168	0	31808	
7169	0	31808	
7170	0	31804	
7171	0	31800	
7172	0	31800	
7173	0	31776	
7174	0	31760	
7175	0	31740	
7176	0	31712	
7177	0	31688	
7178	0	31688	
7179	0	31672	
7180	0	31664	
7181	0	31640	
7182	0	31648	
7183	0	31640	
7184	0	31644	
7185	0	31648	
7186	0	31652	
7187	0	31648	
7188	0	31656	
7189	0	31656	
7190	0	31656	
7191	0	31648	
7192	0	31640	
7193	0	31640	
7194	0	31656	
7195	0	31648	
7196	0	31664	
7197	0	31652	
7198	0	31640	
7199	0	31624	
7200	0	31616	
7201	0	31620	
7202	0	31632	
7203	0	31648	
7204	0	31656	
7205	0	31674	
7206	0	31680	
7207	0	31688	
7208	0	31704	
7209	0	31736	
7210	0	31752	
7211	0	31764	
7212	0	31752	
7213	0	31752	
7214	0	31760	
7215	0	31768	
7216	0	31776	
7217	0	31784	
7218	0	31792	
7219	0	31784	
7220	0	31776	
7221	0	31776	
7222	0	31776	
7223	0	31776	
7224	0	31804	
7225	0	31820	
7226	0	31840	
7227	0	31856	
7228	0	31864	
7229	0	31876	
7230	0	31904	
7231	0	31920	
7232	0	31944	
7233	0	31964	
7234	0	31968	
7235	0	31960	
7236	0	31968	
7237	0	31976	
7238	0	31988	
7239	0	31984	
7240	0	31992	
7241	0	31992	
7242	0	32002	
7243	0	32008	
7244	0	32040	
7245	0	32064	
7246	0	32096	
7247	0	32080	
7248	0	32104	
7249	0	32136	
7250	0	32152	
7251	0	32168	
7252	0	32172	
7253	0	32176	
7254	0	32192	
7255	0	32192	
7256	0	32184	
7257	0	32168	
7258	0	32168	
7259	0	32160	
7260	0	32152	
7261	0	32176	
7262	0	32200	
7263	0	32208	
7264	0	32224	
7265	0	32232	
7266	0	32256	
7267	0	32264	
7268	0	32264	
7269	0	32284	
7270	0	32284	
7271	0	32296	
7272	0	32296	
7273	0	32312	
7274	0	32312	
7275	0	32328	
7276	0	32344	
7277	0	32344	
7278	0	32320	
7279	0	32304	
7280	0	32312	
7281	0	32312	
7282	0	32320	
7283	0	32344	
7284	0	32368	
7285	0	32368	
7286	0	32376	
7287	0	32396	
7288	0	32412	
7289	0	32408	
7290	0	32424	
7291	0	32448	
7292	0	32464	
7293	0	32488	
7294	0	32488	
7295	0	32480	
7296	0	32480	
7297	0	32476	
7298	0	32464	
7299	0	32464	
7300	0	32456	
7301	0	32476	
7302	0	32480	
7303	0	32472	
7304	0	32472	
7305	0	32472	
7306	0	32480	
7307	0	32480	
7308	0	32472	
7309	0	32488	
7310	0	32496	
7311	0	32516	
7312	0	32536	
7313	0	32544	
7314	0	32544	
7315	0	32520	
7316	0	32512	
7317	0	32496	
7318	0	32480	
7319	0	32464	
7320	0	32456	
7321	0	32468	
7322	0	32456	
7323	0	32456	
7324	0	32464	
7325	0	32468	
7326	0	32464	
7327	0	32480	
7328	0	32496	
7329	0	32504	
7330	0	32504	
7331	0	32520	
7332	0	32520	
7333	0	32532	
7334	0	32516	
7335	0	32512	
7336	0	32488	
7337	0	32488	
7338	0	32488	
7339	0	32480	
7340	0	32464	
7341	0	32432	
7342	0	32420	
7343	0	32428	
7344	0	32440	
7345	0	32456	
7346	0	32464	
7347	0	32476	
7348	0	32504	
7349	0	32520	
7350	0	32512	
7351	0	32520	
7352	0	32524	
7353	0	32524	
7354	0	32512	
7355	0	32520	
7356	0	32504	
7357	0	32480	
7358	0	32472	
7359	0	32464	
7360	0	32448	
7361	0	32424	
7362	0	32428	
7363	0	32416	
7364	0	32424	
7365	0	32432	
7366	0	32448	
7367	0	32468	
7368	0	32464	
7369	0	32472	
7370	0	32488	
7371	0	32488	
7372	0	32496	
7373	0	32512	
7374	0	32508	
7375	0	32504	
7376	0	32496	
7377	0	32480	
7378	0	32472	
7379	0	32456	
7380	0	32440	
7381	0	32428	
7382	0	32436	
7383	0	32448	
7384	0	32448	
7385	0	32464	
7386	0	32480	
7387	0	32496	
7388	0	32504	
7389	0	32532	
7390	0	32540	
7391	0	32544	
7392	0	32560	
7393	0	32584	
7394	0	32568	
7395	0	32576	
7396	0	32564	
7397	0	32560	
7398	0	32568	
7399	0	32548	
7400	0	32536	
7401	0	32536	
7402	0	32536	
7403	0	32532	
7404	0	32528	
7405	0	32536	
7406	0	32564	
7407	0	32584	
7408	0	32608	
7409	0	32624	
7410	0	32640	
7411	0	32648	
7412	0	32648	
7413	0	32648	
7414	0	32640	
7415	0	32620	
7416	0	32616	
7417	0	32608	
7418	0	32584	
7419	0	32568	
7420	0	32580	
7421	0	32592	
7422	0	32604	
7423	0	32596	
7424	0	32584	
7425	0	32608	
7426	0	32608	
7427	0	32632	
7428	0	32656	
7429	0	32672	
7430	0	32672	
7431	0	32680	
7432	0	32688	
7433	0	32688	
7434	0	32680	
7435	0	32664	
7436	0	32648	
7437	0	32648	
7438	0	32632	
7439	0	32632	
7440	0	32616	
7441	0	32608	
7442	0	32608	
7443	0	32616	
7444	0	32624	
7445	0	32632	
7446	0	32640	
7447	0	32624	
7448	0	32624	
7449	0	32628	
7450	0	32632	
7451	0	32624	
7452	0	32608	
7453	0	32616	
7454	0	32616	
7455	0	32600	
7456	0	32600	
7457	0	32592	
7458	0	32560	
7459	0	32560	
7460	0	32544	
7461	0	32544	
7462	0	32560	
7463	0	32560	
7464	0	32576	
7465	0	32584	
7466	0	32584	
7467	0	32600	
7468	0	32600	
7469	0	32620	
7470	0	32624	
7471	0	32624	
7472	0	32616	
7473	0	32616	
7474	0	32624	
7475	0	32632	
7476	0	32616	
7477	0	32616	
7478	0	32608	
7479	0	32600	
7480	0	32608	
7481	0	32616	
7482	0	32616	
7483	0	32616	
7484	0	32616	
7485	0	32648	
7486	0	32664	
7487	0	32680	
7488	0	32696	
7489	0	32716	
7490	0	32720	
7491	0	32728	
7492	0	32736	
7493	0	32752	
7494	0	32744	
7495	0	32736	
7496	0	32720	
7497	0	32704	
7498	0	32688	
7499	0	32664	
7500	0	32664	
7501	0	32672	
7502	0	32676	
7503	0	32688	
7504	0	32696	
7505	0	32712	
7506	0	32728	
7507	0	32728	
7508	0	32736	
7509	0	32736	
7510	0	32744	
7511	0	32752	
7512	0	32764	
7513	0	32760	
7514	0	32776	
7515	0	32792	
7516	0	32784	
7517	0	32760	
7518	0	32736	
7519	0	32736	
7520	0	32720	
7521	0	32728	
7522	0	32712	
7523	0	32704	
7524	0	32696	
7525	0	32704	
7526	0	32720	
7527	0	32728	
7528	0	32732	
7529	0	32756	
7530	0	32756	
7531	0	32760	
7532	0	32764	
7533	0	32748	
7534	0	32744	
7535	0	32768	
7536	0	32756	
7537	0	32744	
7538	0	32744	
7539	0	32728	
7540	0	32704	
7541	0	32684	
7542	0	32680	
7543	0	32680	
7544	0	32680	
7545	0	32672	
7546	0	32664	
7547	0	32668	
7548	0	32680	
7549	0	32688	
7550	0	32700	
7551	0	32712	
7552	0	32720	
7553	0	32712	
7554	0	32704	
7555	0	32704	
7556	0	32688	
7557	0	32680	
7558	0	32672	
7559	0	32648	
7560	0	32664	
7561	0	32648	
7562	0	32632	
7563	0	32632	
7564	0	32616	
7565	0	32608	
7566	0	32612	
7567	0	32608	
7568	0	32624	
7569	0	32640	
7570	0	32648	
7571	0	32652	
7572	0	32656	
7573	0	32656	
7574	0	32676	
7575	0	32700	
7576	0	32696	
7577	0	32688	
7578	0	32680	
7579	0	32680	
7580	0	32672	
7581	0	32682	
7582	0	32696	
7583	0	32720	
7584	0	32736	
7585	0	32748	
7586	0	32768	
7587	0	32792	
7588	0	32816	
7589	0	32856	
7590	0	32904	
7591	0	32928	
7592	0	32936	
7593	0	32964	
7594	0	32944	
7595	0	32936	
7596	0	32940	
7597	0	32920	
7598	0	32904	
7599	0	32896	
7600	0	32892	
7601	0	32888	
7602	0	32880	
7603	0	32896	
7604	0	32912	
7605	0	32912	
7606	0	32944	
7607	0	32944	
7608	0	32952	
7609	0	32968	
7610	0	32976	
7611	0	32992	
7612	0	33000	
7613	0	32996	
7614	0	32992	
7615	0	32996	
7616	0	33008	
7617	0	33000	
7618	0	33016	
7619	0	33008	
7620	0	33000	
7621	0	32976	
7622	0	32960	
7623	0	32932	
7624	0	32904	
7625	0	32896	
7626	0	32880	
7627	0	32892	
7628	0	32876	
7629	0	32888	
7630	0	32888	
7631	0	32880	
7632	0	32896	
7633	0	32896	
7634	0	32896	
7635	0	32912	
7636	0	32908	
7637	0	32920	
7638	0	32904	
7639	0	32896	
7640	0	32876	
7641	0	32880	
7642	0	32876	
7643	0	32888	
7644	0	32904	
7645	0	32896	
7646	0	32904	
7647	0	32896	
7648	0	32928	
7649	0	32944	
7650	0	32952	
7651	0	32960	
7652	0	32952	
7653	0	32944	
7654	0	32936	
7655	0	32944	
7656	0	32936	
7657	0	32940	
7658	0	32936	
7659	0	32928	
7660	0	32904	
7661	0	32880	
7662	0	32888	
7663	0	32892	
7664	0	32880	
7665	0	32892	
7666	0	32896	
7667	0	32912	
7668	0	32924	
7669	0	32944	
7670	0	32960	
7671	0	32960	
7672	0	32964	
7673	0	32964	
7674	0	32976	
7675	0	32984	
7676	0	32968	
7677	0	32976	
7678	0	32968	
7679	0	32940	
7680	0	32928	
7681	0	32904	
7682	0	32876	
7683	0	32896	
7684	0	32920	
7685	0	32936	
7686	0	32952	
7687	0	32952	
7688	0	32972	
7689	0	32992	
7690	0	32984	
7691	0	32992	
7692	0	32976	
7693	0	32960	
7694	0	32944	
7695	0	32928	
7696	0	32876	
7697	0	32828	
7698	0	32768	
7699	0	32688	
7700	0	32608	
7701	0	32528	
7702	0	32432	
7703	0	32320	
7704	0	32216	
7705	0	32096	
7706	0	31976	
7707	0	31904	
7708	0	31880	
7709	0	31888	
7710	0	31928	
7711	0	31952	
7712	0	31984	
7713	0	31984	
7714	0	32004	
7715	0	32056	
7716	0	32120	
7717	0	32280	
7718	0	32480	
7719	0	32740	
7720	0	33080	
7721	0	33488	
7722	0	33992	
7723	0	34616	
7724	0	35304	
7725	0	36120	
7726	0	36972	
7727	0	37864	
7728	0	38800	
7729	0	39744	
7730	0	40672	
7731	0	41600	
7732	0	42488	
7733	0	43328	
7734	0	44064	
7735	0	44704	
7736	0	45248	
7737	0	45616	
7738	0	45776	
7739	0	45744	
7740	0	45560	
7741	0	45160	
7742	0	44648	
7743	0	44080	
7744	0	43432	
7745	0	42720	
7746	0	41968	
7747	0	41192	
7748	0	40384	
7749	0	39552	
7750	0	38704	
7751	0	37880	
7752	0	37112	
7753	0	36448	
7754	0	35904	
7755	0	35424	
7756	0	35056	
7757	0	34728	
7758	0	34464	
7759	0	34248	
7760	0	34032	
7761	0	33820	
7762	0	33592	
7763	0	33400	
7764	0	33192	
7765	0	33000	
7766	0	32824	
7767	0	32632	
7768	0	32468	
7769	0	32332	
7770	0	32208	
7771	0	32104	
7772	0	32016	
7773	0	31944	
7774	0	31884	
7775	0	31824	
7776	0	31800	
7777	0	31760	
7778	0	31724	
7779	0	31672	
7780	0	31640	
7781	0	31608	
7782	0	31600	
7783	0	31592	
7784	0	31568	
7785	0	31556	
7786	0	31560	
7787	0	31568	
7788	0	31588	
7789	0	31608	
7790	0	31616	
7791	0	31608	
7792	0	31616	
7793	0	31616	
7794	0	31600	
7795	0	31592	
7796	0	31596	
7797	0	31600	
7798	0	31600	
7799	0	31592	
7800	0	31580	
7801	0	31560	
7802	0	31560	
7803	0	31584	
7804	0	31600	
7805	0	31624	
7806	0	31648	
7807	0	31672	
7808	0	31688	
7809	0	31708	
7810	0	31716	
7811	0	31720	
7812	0	31728	
7813	0	31752	
7814	0	31768	
7815	0	31768	
7816	0	31776	
7817	0	31776	
7818	0	31784	
7819	0	31756	
7820	0	31760	
7821	0	31760	
7822	0	31768	
7823	0	31792	
7824	0	31788	
7825	0	31808	
7826	0	31816	
7827	0	31816	
7828	0	31824	
7829	0	31836	
7830	0	31848	
7831	0	31856	
7832	0	31876	
7833	0	31872	
7834	0	31872	
7835	0	31872	
7836	0	31884	
7837	0	31884	
7838	0	31864	
7839	0	31864	
7840	0	31864	
7841	0	31856	
7842	0	31852	
7843	0	31856	
7844	0	31872	
7845	0	31872	
7846	0	31864	
7847	0	31880	
7848	0	31904	
7849	0	31912	
7850	0	31936	
7851	0	31952	
7852	0	31972	
7853	0	31992	
7854	0	31984	
7855	0	31984	
7856	0	31968	
7857	0	31960	
7858	0	31952	
7859	0	31936	
7860	0	31944	
7861	0	31968	
7862	0	31984	
7863	0	32000	
7864	0	32024	
7865	0	32032	
7866	0	32048	
7867	0	32064	
7868	0	32080	
7869	0	32104	
7870	0	32128	
7871	0	32160	
7872	0	32160	
7873	0	32176	
7874	0	32184	
7875	0	32200	
7876	0	32200	
7877	0	32192	
7878	0	32176	
7879	0	32176	
7880	0	32192	
7881	0	32196	
7882	0	32208	
7883	0	32224	
7884	0	32232	
7885	0	32260	
7886	0	32272	
7887	0	32264	
7888	0	32300	
7889	0	32304	
7890	0	32328	
7891	0	32340	
7892	0	32336	
7893	0	32344	
7894	0	32352	
7895	0	32360	
7896	0	32364	
7897	0	32352	
7898	0	32344	
7899	0	32328	
7900	0	32328	
7901	0	32328	
7902	0	32320	
7903	0	32320	
7904	0	32320	
7905	0	32328	
7906	0	32352	
7907	0	32360	
7908	0	32368	
7909	0	32384	
7910	0	32400	
7911	0	32428	
7912	0	32456	
7913	0	32464	
7914	0	32480	
7915	0	32468	
7916	0	32488	
7917	0	32484	
7918	0	32472	
7919	0	32472	
7920	0	32472	
7921	0	32472	
7922	0	32464	
7923	0	32464	
7924	0	32480	
7925	0	32504	
7926	0	32520	
7927	0	32544	
7928	0	32544	
7929	0	32552	
7930	0	32576	
7931	0	32604	
7932	0	32620	
7933	0	32632	
7934	0	32640	
7935	0	32624	
7936	0	32632	
7937	0	32624	
7938	0	32632	
7939	0	32636	
7940	0	32648	
7941	0	32640	
7942	0	32648	
7943	0	32648	
7944	0	32640	
7945	0	32656	
7946	0	32668	
7947	0	32680	
7948	0	32704	
7949	0	32720	
7950	0	32744	
7951	0	32760	
7952	0	32744	
7953	0	32744	
7954	0	32744	
7955	0	32724	
7956	0	32704	
7957	0	32688	
7958	0	32656	
7959	0	32648	
7960	0	32632	
7961	0	32620	
7962	0	32616	
7963	0	32608	
7964	0	32592	
7965	0	32584	
7966	0	32600	
7967	0	32608	
7968	0	32632	
7969	0	32656	
7970	0	32672	
7971	0	32672	
7972	0	32664	
7973	0	32640	
7974	0	32636	
7975	0	32632	
7976	0	32632	
7977	0	32608	
7978	0	32600	
7979	0	32592	
7980	0	32556	
7981	0	32544	
7982	0	32528	
7983	0	32512	
7984	0	32504	
7985	0	32488	
7986	0	32504	
7987	0	32512	
7988	0	32528	
7989	0	32508	
7990	0	32488	
7991	0	32488	
7992	0	32472	
7993	0	32448	
7994	0	32440	
7995	0	32408	
7996	0	32392	
7997	0	32360	
7998	0	32328	
7999	0	32296	
8000	0	32264	
8001	0	32232	
8002	0	32200	
8003	0	32168	
8004	0	32176	
8005	0	32160	
8006	0	32152	
8007	0	32152	
8008	0	32148	
8009	0	32144	
8010	0	32144	
8011	0	32144	
8012	0	32136	
8013	0	32128	
8014	0	32112	
8015	0	32096	
8016	0	32104	
8017	0	32096	
8018	0	32076	
8019	0	32056	
8020	0	32040	
8021	0	32016	
8022	0	32008	
8023	0	32000	
8024	0	32000	
8025	0	32000	
8026	0	32024	
8027	0	32048	
8028	0	32064	
8029	0	32064	
8030	0	32064	
8031	0	32056	
8032	0	32056	
8033	0	32072	
8034	0	32088	
8035	0	32080	
8036	0	32056	
8037	0	32056	
8038	0	32040	
8039	0	32016	
