# OpenSignals Text File Format
# {"00:07:80:F9:DE:B2": {"sensor": ["EDA"], "device name": "00:07:80:F9:DE:B2", "column": ["nSeq", "DI", "CH1"], "sync interval": 2, "time": "12:32:40.138", "comments": "", "device connection": "BTH00:07:80:F9:DE:B2", "channels": [1], "keywords": "", "mode": 0, "digital IO": [0, 1], "firmware version": 773, "device": "biosignalsplux", "position": 0, "sampling rate": 1000, "label": ["CH1"], "resolution": [16], "date": "2018-9-25", "special": [{}]}}
# EndOfHeader
0	0	157	
1	0	158	
2	0	158	
3	0	156	
4	0	156	
5	0	157	
6	0	156	
7	0	157	
8	0	156	
9	0	157	
10	0	155	
11	0	155	
12	0	156	
13	0	157	
14	0	157	
15	0	156	
16	0	153	
17	0	157	
18	0	156	
19	0	154	
20	0	153	
21	0	154	
22	0	151	
23	0	154	
24	0	152	
25	0	151	
26	0	151	
27	0	149	
28	0	148	
29	0	148	
30	0	145	
31	0	149	
32	0	144	
33	0	143	
34	0	141	
35	0	142	
36	0	141	
37	0	139	
38	0	138	
39	0	136	
40	0	134	
41	0	135	
42	0	133	
43	0	134	
44	0	133	
45	0	132	
46	0	131	
47	0	130	
48	0	128	
49	0	126	
50	0	126	
51	0	123	
52	0	123	
53	0	122	
54	0	122	
55	0	119	
56	0	118	
57	0	117	
58	0	116	
59	0	116	
60	0	113	
61	0	113	
62	0	111	
63	0	110	
64	0	111	
65	0	108	
66	0	108	
67	0	109	
68	0	106	
69	0	103	
70	0	104	
71	0	104	
72	0	101	
73	0	101	
74	0	99	
75	0	98	
76	0	98	
77	0	99	
78	0	98	
79	0	96	
80	0	99	
81	0	95	
82	0	95	
83	0	93	
84	0	93	
85	0	90	
86	0	89	
87	0	89	
88	0	87	
89	0	84	
90	0	85	
91	0	84	
92	0	83	
93	0	81	
94	0	80	
95	0	81	
96	0	80	
97	0	77	
98	0	74	
99	0	76	
100	0	75	
101	0	74	
102	0	69	
103	0	69	
104	0	69	
105	0	67	
106	0	66	
107	0	66	
108	0	65	
109	0	65	
110	0	64	
111	0	64	
112	0	63	
113	0	61	
114	0	61	
115	0	61	
116	0	60	
117	0	62	
118	0	61	
119	0	61	
120	0	65	
121	0	61	
122	0	63	
123	0	64	
124	0	65	
125	0	64	
126	0	64	
127	0	65	
128	0	65	
129	0	66	
130	0	65	
131	0	65	
132	0	65	
133	0	64	
134	0	64	
135	0	66	
136	0	65	
137	0	64	
138	0	65	
139	0	63	
140	0	64	
141	0	64	
142	0	62	
143	0	61	
144	0	62	
145	0	64	
146	0	64	
147	0	61	
148	0	62	
149	0	62	
150	0	62	
151	0	62	
152	0	63	
153	0	63	
154	0	63	
155	0	63	
156	0	63	
157	0	63	
158	0	64	
159	0	63	
160	0	63	
161	0	65	
162	0	65	
163	0	65	
164	0	65	
165	0	67	
166	0	65	
167	0	67	
168	0	67	
169	0	65	
170	0	69	
171	0	66	
172	0	67	
173	0	66	
174	0	67	
175	0	66	
176	0	67	
177	0	66	
178	0	68	
179	0	70	
180	0	67	
181	0	69	
182	0	68	
183	0	68	
184	0	70	
185	0	68	
186	0	67	
187	0	70	
188	0	66	
189	0	68	
190	0	67	
191	0	68	
192	0	67	
193	0	69	
194	0	71	
195	0	68	
196	0	70	
197	0	70	
198	0	72	
199	0	70	
200	0	70	
201	0	71	
202	0	72	
203	0	70	
204	0	72	
205	0	73	
206	0	74	
207	0	71	
208	0	74	
209	0	74	
210	0	72	
211	0	73	
212	0	73	
213	0	73	
214	0	72	
215	0	73	
216	0	76	
217	0	74	
218	0	76	
219	0	76	
220	0	79	
221	0	78	
222	0	81	
223	0	80	
224	0	80	
225	0	81	
226	0	79	
227	0	83	
228	0	84	
229	0	84	
230	0	84	
231	0	84	
232	0	85	
233	0	87	
234	0	87	
235	0	88	
236	0	90	
237	0	87	
238	0	90	
239	0	92	
240	0	93	
241	0	94	
242	0	93	
243	0	97	
244	0	97	
245	0	98	
246	0	99	
247	0	101	
248	0	100	
249	0	102	
250	0	103	
251	0	104	
252	0	103	
253	0	104	
254	0	105	
255	0	110	
256	0	110	
257	0	111	
258	0	112	
259	0	113	
260	0	118	
261	0	116	
262	0	117	
263	0	121	
264	0	120	
265	0	120	
266	0	121	
267	0	122	
268	0	124	
269	0	123	
270	0	127	
271	0	125	
272	0	127	
273	0	129	
274	0	127	
275	0	130	
276	0	129	
277	0	130	
278	0	131	
279	0	130	
280	0	131	
281	0	134	
282	0	131	
283	0	133	
284	0	133	
285	0	136	
286	0	135	
287	0	137	
288	0	134	
289	0	134	
290	0	133	
291	0	135	
292	0	136	
293	0	137	
294	0	136	
295	0	138	
296	0	138	
297	0	136	
298	0	139	
299	0	140	
300	0	139	
301	0	136	
302	0	139	
303	0	137	
304	0	138	
305	0	140	
306	0	140	
307	0	139	
308	0	140	
309	0	142	
310	0	140	
311	0	142	
312	0	144	
313	0	146	
314	0	145	
315	0	147	
316	0	148	
317	0	150	
318	0	151	
319	0	151	
320	0	154	
321	0	155	
322	0	156	
323	0	157	
324	0	158	
325	0	160	
326	0	160	
327	0	163	
328	0	163	
329	0	166	
330	0	166	
331	0	167	
332	0	168	
333	0	169	
334	0	172	
335	0	173	
336	0	172	
337	0	171	
338	0	173	
339	0	175	
340	0	177	
341	0	179	
342	0	179	
343	0	178	
344	0	183	
345	0	183	
346	0	186	
347	0	187	
348	0	188	
349	0	191	
350	0	189	
351	0	193	
352	0	193	
353	0	193	
354	0	196	
355	0	198	
356	0	201	
357	0	200	
358	0	201	
359	0	205	
360	0	207	
361	0	208	
362	0	215	
363	0	213	
364	0	216	
365	0	217	
366	0	218	
367	0	219	
368	0	220	
369	0	223	
370	0	219	
371	0	225	
372	0	226	
373	0	227	
374	0	228	
375	0	230	
376	0	230	
377	0	230	
378	0	232	
379	0	233	
380	0	233	
381	0	234	
382	0	236	
383	0	233	
384	0	235	
385	0	234	
386	0	237	
387	0	235	
388	0	238	
389	0	237	
390	0	237	
391	0	237	
392	0	237	
393	0	235	
394	0	236	
395	0	238	
396	0	239	
397	0	237	
398	0	236	
399	0	235	
400	0	237	
401	0	237	
402	0	238	
403	0	238	
404	0	236	
405	0	235	
406	0	234	
407	0	234	
408	0	234	
409	0	231	
410	0	230	
411	0	231	
412	0	232	
413	0	229	
414	0	229	
415	0	229	
416	0	228	
417	0	229	
418	0	226	
419	0	226	
420	0	226	
421	0	223	
422	0	224	
423	0	223	
424	0	224	
425	0	220	
426	0	221	
427	0	219	
428	0	220	
429	0	218	
430	0	217	
431	0	216	
432	0	214	
433	0	215	
434	0	212	
435	0	213	
436	0	215	
437	0	209	
438	0	210	
439	0	208	
440	0	206	
441	0	207	
442	0	206	
443	0	200	
444	0	203	
445	0	199	
446	0	197	
447	0	196	
448	0	196	
449	0	194	
450	0	191	
451	0	191	
452	0	192	
453	0	190	
454	0	186	
455	0	187	
456	0	185	
457	0	186	
458	0	182	
459	0	181	
460	0	180	
461	0	177	
462	0	178	
463	0	174	
464	0	172	
465	0	172	
466	0	173	
467	0	170	
468	0	168	
469	0	166	
470	0	166	
471	0	167	
472	0	164	
473	0	161	
474	0	161	
475	0	160	
476	0	162	
477	0	159	
478	0	158	
479	0	158	
480	0	156	
481	0	156	
482	0	154	
483	0	152	
484	0	152	
485	0	153	
486	0	151	
487	0	152	
488	0	147	
489	0	147	
490	0	147	
491	0	147	
492	0	146	
493	0	144	
494	0	146	
495	0	143	
496	0	143	
497	0	144	
498	0	142	
499	0	142	
500	0	139	
501	0	142	
502	0	139	
503	0	139	
504	0	138	
505	0	139	
506	0	139	
507	0	137	
508	0	137	
509	0	135	
510	0	134	
511	0	134	
512	0	136	
513	0	133	
514	0	133	
515	0	133	
516	0	133	
517	0	133	
518	0	132	
519	0	134	
520	0	135	
521	0	134	
522	0	130	
523	0	130	
524	0	131	
525	0	129	
526	0	131	
527	0	129	
528	0	130	
529	0	127	
530	0	129	
531	0	128	
532	0	129	
533	0	127	
534	0	127	
535	0	129	
536	0	128	
537	0	130	
538	0	127	
539	0	128	
540	0	126	
541	0	128	
542	0	128	
543	0	126	
544	0	126	
545	0	127	
546	0	126	
547	0	127	
548	0	126	
549	0	126	
550	0	125	
551	0	125	
552	0	127	
553	0	127	
554	0	124	
555	0	122	
556	0	125	
557	0	125	
558	0	124	
559	0	124	
560	0	124	
561	0	125	
562	0	123	
563	0	126	
564	0	124	
565	0	126	
566	0	129	
567	0	126	
568	0	128	
569	0	127	
570	0	129	
571	0	128	
572	0	131	
573	0	130	
574	0	132	
575	0	134	
576	0	135	
577	0	139	
578	0	139	
579	0	143	
580	0	142	
581	0	146	
582	0	146	
583	0	147	
584	0	149	
585	0	149	
586	0	152	
587	0	154	
588	0	153	
589	0	152	
590	0	158	
591	0	159	
592	0	160	
593	0	163	
594	0	163	
595	0	162	
596	0	167	
597	0	167	
598	0	169	
599	0	171	
600	0	174	
601	0	175	
602	0	175	
603	0	177	
604	0	178	
605	0	182	
606	0	181	
607	0	184	
608	0	184	
609	0	186	
610	0	186	
611	0	187	
612	0	190	
613	0	190	
614	0	190	
615	0	194	
616	0	194	
617	0	195	
618	0	199	
619	0	202	
620	0	205	
621	0	208	
622	0	212	
623	0	214	
624	0	216	
625	0	219	
626	0	223	
627	0	224	
628	0	229	
629	0	228	
630	0	232	
631	0	236	
632	0	239	
633	0	243	
634	0	248	
635	0	251	
636	0	255	
637	0	260	
638	0	265	
639	0	266	
640	0	268	
641	0	269	
642	0	273	
643	0	273	
644	0	274	
645	0	272	
646	0	271	
647	0	270	
648	0	269	
649	0	265	
650	0	267	
651	0	264	
652	0	265	
653	0	267	
654	0	266	
655	0	275	
656	0	279	
657	0	284	
658	0	290	
659	0	303	
660	0	314	
661	0	328	
662	0	340	
663	0	351	
664	0	358	
665	0	366	
666	0	372	
667	0	379	
668	0	383	
669	0	386	
670	0	384	
671	0	386	
672	0	386	
673	0	382	
674	0	383	
675	0	379	
676	0	374	
677	0	365	
678	0	361	
679	0	356	
680	0	354	
681	0	350	
682	0	348	
683	0	344	
684	0	343	
685	0	344	
686	0	343	
687	0	344	
688	0	340	
689	0	341	
690	0	338	
691	0	337	
692	0	334	
693	0	332	
694	0	329	
695	0	327	
696	0	321	
697	0	321	
698	0	318	
699	0	313	
700	0	311	
701	0	307	
702	0	306	
703	0	300	
704	0	299	
705	0	295	
706	0	293	
707	0	294	
708	0	293	
709	0	289	
710	0	287	
711	0	288	
712	0	283	
713	0	278	
714	0	279	
715	0	276	
716	0	275	
717	0	271	
718	0	269	
719	0	266	
720	0	266	
721	0	262	
722	0	262	
723	0	258	
724	0	256	
725	0	254	
726	0	248	
727	0	249	
728	0	245	
729	0	244	
730	0	238	
731	0	238	
732	0	236	
733	0	234	
734	0	229	
735	0	229	
736	0	226	
737	0	226	
738	0	225	
739	0	222	
740	0	221	
741	0	218	
742	0	219	
743	0	217	
744	0	213	
745	0	210	
746	0	209	
747	0	209	
748	0	207	
749	0	201	
750	0	201	
751	0	197	
752	0	197	
753	0	198	
754	0	193	
755	0	195	
756	0	191	
757	0	190	
758	0	187	
759	0	184	
760	0	185	
761	0	182	
762	0	179	
763	0	179	
764	0	175	
765	0	175	
766	0	173	
767	0	171	
768	0	168	
769	0	166	
770	0	163	
771	0	163	
772	0	161	
773	0	161	
774	0	158	
775	0	157	
776	0	156	
777	0	153	
778	0	151	
779	0	149	
780	0	147	
781	0	146	
782	0	146	
783	0	143	
784	0	140	
785	0	137	
786	0	137	
787	0	135	
788	0	133	
789	0	130	
790	0	130	
791	0	129	
792	0	128	
793	0	126	
794	0	123	
795	0	123	
796	0	121	
797	0	121	
798	0	120	
799	0	118	
800	0	120	
801	0	117	
802	0	116	
803	0	113	
804	0	116	
805	0	114	
806	0	115	
807	0	114	
808	0	112	
809	0	112	
810	0	110	
811	0	109	
812	0	110	
813	0	110	
814	0	107	
815	0	107	
816	0	107	
817	0	108	
818	0	108	
819	0	106	
820	0	107	
821	0	107	
822	0	107	
823	0	104	
824	0	104	
825	0	105	
826	0	105	
827	0	107	
828	0	107	
829	0	107	
830	0	107	
831	0	105	
832	0	105	
833	0	103	
834	0	102	
835	0	99	
836	0	96	
837	0	96	
838	0	95	
839	0	92	
840	0	91	
841	0	90	
842	0	85	
843	0	83	
844	0	83	
845	0	80	
846	0	78	
847	0	78	
848	0	75	
849	0	73	
850	0	74	
851	0	72	
852	0	70	
853	0	70	
854	0	67	
855	0	67	
856	0	66	
857	0	65	
858	0	65	
859	0	65	
860	0	64	
861	0	63	
862	0	63	
863	0	62	
864	0	61	
865	0	61	
866	0	62	
867	0	60	
868	0	60	
869	0	60	
870	0	61	
871	0	60	
872	0	61	
873	0	61	
874	0	60	
875	0	63	
876	0	60	
877	0	63	
878	0	65	
879	0	65	
880	0	64	
881	0	66	
882	0	66	
883	0	67	
884	0	65	
885	0	67	
886	0	67	
887	0	67	
888	0	68	
889	0	71	
890	0	71	
891	0	71	
892	0	74	
893	0	72	
894	0	75	
895	0	74	
896	0	77	
897	0	78	
898	0	79	
899	0	79	
900	0	80	
901	0	82	
902	0	83	
903	0	84	
904	0	86	
905	0	87	
906	0	89	
907	0	87	
908	0	88	
909	0	90	
910	0	90	
911	0	92	
912	0	93	
913	0	95	
914	0	95	
915	0	94	
916	0	95	
917	0	97	
918	0	98	
919	0	97	
920	0	98	
921	0	98	
922	0	101	
923	0	100	
924	0	100	
925	0	104	
926	0	104	
927	0	103	
928	0	105	
929	0	105	
930	0	105	
931	0	106	
932	0	107	
933	0	108	
934	0	109	
935	0	111	
936	0	111	
937	0	112	
938	0	113	
939	0	114	
940	0	116	
941	0	117	
942	0	117	
943	0	120	
944	0	118	
945	0	121	
946	0	121	
947	0	121	
948	0	123	
949	0	124	
950	0	123	
951	0	125	
952	0	125	
953	0	126	
954	0	127	
955	0	127	
956	0	129	
957	0	129	
958	0	129	
959	0	130	
960	0	132	
961	0	131	
962	0	133	
963	0	134	
964	0	133	
965	0	135	
966	0	136	
967	0	134	
968	0	136	
969	0	137	
970	0	138	
971	0	141	
972	0	138	
973	0	142	
974	0	139	
975	0	140	
976	0	141	
977	0	143	
978	0	144	
979	0	144	
980	0	142	
981	0	144	
982	0	144	
983	0	144	
984	0	145	
985	0	145	
986	0	144	
987	0	144	
988	0	145	
989	0	144	
990	0	142	
991	0	143	
992	0	141	
993	0	141	
994	0	141	
995	0	141	
996	0	141	
997	0	141	
998	0	142	
999	0	138	
1000	0	139	
1001	0	138	
1002	0	136	
1003	0	135	
1004	0	136	
1005	0	134	
1006	0	134	
1007	0	134	
1008	0	133	
1009	0	129	
1010	0	130	
1011	0	131	
1012	0	130	
1013	0	129	
1014	0	128	
1015	0	128	
1016	0	127	
1017	0	125	
1018	0	125	
1019	0	125	
1020	0	122	
1021	0	122	
1022	0	123	
1023	0	123	
1024	0	121	
1025	0	121	
1026	0	122	
1027	0	117	
1028	0	119	
1029	0	119	
1030	0	118	
1031	0	116	
1032	0	117	
1033	0	115	
1034	0	113	
1035	0	114	
1036	0	114	
1037	0	113	
1038	0	113	
1039	0	114	
1040	0	110	
1041	0	111	
1042	0	113	
1043	0	113	
1044	0	111	
1045	0	111	
1046	0	112	
1047	0	110	
1048	0	111	
1049	0	110	
1050	0	110	
1051	0	110	
1052	0	109	
1053	0	108	
1054	0	109	
1055	0	109	
1056	0	107	
1057	0	107	
1058	0	109	
1059	0	108	
1060	0	106	
1061	0	106	
1062	0	107	
1063	0	105	
1064	0	107	
1065	0	107	
1066	0	107	
1067	0	108	
1068	0	105	
1069	0	105	
1070	0	106	
1071	0	106	
1072	0	104	
1073	0	103	
1074	0	103	
1075	0	105	
1076	0	103	
1077	0	102	
1078	0	102	
1079	0	103	
1080	0	103	
1081	0	101	
1082	0	101	
1083	0	100	
1084	0	100	
1085	0	101	
1086	0	100	
1087	0	97	
1088	0	98	
1089	0	99	
1090	0	97	
1091	0	98	
1092	0	98	
1093	0	98	
1094	0	95	
1095	0	95	
1096	0	94	
1097	0	94	
1098	0	94	
1099	0	92	
1100	0	92	
1101	0	92	
1102	0	94	
1103	0	91	
1104	0	91	
1105	0	92	
1106	0	91	
1107	0	89	
1108	0	88	
1109	0	86	
1110	0	88	
1111	0	87	
1112	0	86	
1113	0	85	
1114	0	84	
1115	0	85	
1116	0	84	
1117	0	81	
1118	0	82	
1119	0	82	
1120	0	81	
1121	0	81	
1122	0	80	
1123	0	81	
1124	0	80	
1125	0	79	
1126	0	80	
1127	0	82	
1128	0	80	
1129	0	78	
1130	0	79	
1131	0	78	
1132	0	78	
1133	0	77	
1134	0	78	
1135	0	78	
1136	0	77	
1137	0	76	
1138	0	77	
1139	0	75	
1140	0	77	
1141	0	77	
1142	0	76	
1143	0	76	
1144	0	75	
1145	0	76	
1146	0	76	
1147	0	74	
1148	0	74	
1149	0	76	
1150	0	75	
1151	0	74	
1152	0	75	
1153	0	73	
1154	0	74	
1155	0	72	
1156	0	73	
1157	0	73	
1158	0	73	
1159	0	73	
1160	0	71	
1161	0	72	
1162	0	71	
1163	0	73	
1164	0	74	
1165	0	72	
1166	0	72	
1167	0	73	
1168	0	72	
1169	0	71	
1170	0	72	
1171	0	71	
1172	0	72	
1173	0	71	
1174	0	71	
1175	0	71	
1176	0	72	
1177	0	72	
1178	0	71	
1179	0	71	
1180	0	72	
1181	0	72	
1182	0	73	
1183	0	73	
1184	0	71	
1185	0	72	
1186	0	73	
1187	0	72	
1188	0	74	
1189	0	72	
1190	0	73	
1191	0	74	
1192	0	75	
1193	0	75	
1194	0	73	
1195	0	74	
1196	0	74	
1197	0	74	
1198	0	75	
1199	0	76	
1200	0	75	
1201	0	75	
1202	0	75	
1203	0	77	
1204	0	76	
1205	0	76	
1206	0	78	
1207	0	76	
1208	0	79	
1209	0	78	
1210	0	80	
1211	0	78	
1212	0	78	
1213	0	79	
1214	0	78	
1215	0	80	
1216	0	79	
1217	0	78	
1218	0	80	
1219	0	77	
1220	0	82	
1221	0	81	
1222	0	79	
1223	0	81	
1224	0	80	
1225	0	82	
1226	0	81	
1227	0	79	
1228	0	81	
1229	0	79	
1230	0	83	
1231	0	82	
1232	0	79	
1233	0	82	
1234	0	81	
1235	0	80	
1236	0	81	
1237	0	82	
1238	0	82	
1239	0	81	
1240	0	83	
1241	0	81	
1242	0	82	
1243	0	82	
1244	0	82	
1245	0	84	
1246	0	83	
1247	0	85	
1248	0	84	
1249	0	84	
1250	0	85	
1251	0	85	
1252	0	83	
1253	0	85	
1254	0	86	
1255	0	83	
1256	0	86	
1257	0	85	
1258	0	87	
1259	0	84	
1260	0	87	
1261	0	88	
1262	0	87	
1263	0	87	
1264	0	88	
1265	0	85	
1266	0	87	
1267	0	90	
1268	0	89	
1269	0	88	
1270	0	87	
1271	0	85	
1272	0	87	
1273	0	89	
1274	0	87	
1275	0	89	
1276	0	89	
1277	0	87	
1278	0	89	
1279	0	89	
1280	0	90	
1281	0	90	
1282	0	90	
1283	0	89	
1284	0	88	
1285	0	91	
1286	0	89	
1287	0	90	
1288	0	90	
1289	0	89	
1290	0	91	
1291	0	88	
1292	0	88	
1293	0	88	
1294	0	90	
1295	0	89	
1296	0	90	
1297	0	87	
1298	0	90	
1299	0	89	
1300	0	89	
1301	0	90	
1302	0	89	
1303	0	87	
1304	0	87	
1305	0	90	
1306	0	87	
1307	0	87	
1308	0	86	
1309	0	85	
1310	0	88	
1311	0	86	
1312	0	84	
1313	0	84	
1314	0	84	
1315	0	83	
1316	0	84	
1317	0	82	
1318	0	83	
1319	0	83	
1320	0	83	
1321	0	83	
1322	0	82	
1323	0	85	
1324	0	81	
1325	0	81	
1326	0	81	
1327	0	81	
1328	0	80	
1329	0	81	
1330	0	79	
1331	0	80	
1332	0	81	
1333	0	79	
1334	0	78	
1335	0	79	
1336	0	78	
1337	0	78	
1338	0	80	
1339	0	78	
1340	0	80	
1341	0	79	
1342	0	78	
1343	0	78	
1344	0	77	
1345	0	80	
1346	0	78	
1347	0	79	
1348	0	78	
1349	0	79	
1350	0	76	
1351	0	77	
1352	0	75	
1353	0	77	
1354	0	77	
1355	0	77	
1356	0	76	
1357	0	76	
1358	0	76	
1359	0	75	
1360	0	74	
1361	0	76	
1362	0	76	
1363	0	76	
1364	0	76	
1365	0	75	
1366	0	74	
1367	0	76	
1368	0	75	
1369	0	75	
1370	0	75	
1371	0	75	
1372	0	74	
1373	0	74	
1374	0	74	
1375	0	75	
1376	0	74	
1377	0	72	
1378	0	73	
1379	0	74	
1380	0	72	
1381	0	72	
1382	0	74	
1383	0	74	
1384	0	75	
1385	0	75	
1386	0	74	
1387	0	75	
1388	0	74	
1389	0	73	
1390	0	74	
1391	0	75	
1392	0	73	
1393	0	74	
1394	0	73	
1395	0	73	
1396	0	73	
1397	0	74	
1398	0	72	
1399	0	74	
1400	0	75	
1401	0	73	
1402	0	74	
1403	0	73	
1404	0	75	
1405	0	76	
1406	0	76	
1407	0	75	
1408	0	75	
1409	0	76	
1410	0	75	
1411	0	75	
1412	0	75	
1413	0	75	
1414	0	75	
1415	0	73	
1416	0	74	
1417	0	76	
1418	0	76	
1419	0	76	
1420	0	76	
1421	0	75	
1422	0	74	
1423	0	75	
1424	0	74	
1425	0	76	
1426	0	77	
1427	0	76	
1428	0	76	
1429	0	76	
1430	0	76	
1431	0	77	
1432	0	74	
1433	0	75	
1434	0	75	
1435	0	75	
1436	0	76	
1437	0	76	
1438	0	76	
1439	0	76	
1440	0	76	
1441	0	75	
1442	0	74	
1443	0	74	
1444	0	76	
1445	0	76	
1446	0	76	
1447	0	74	
1448	0	74	
1449	0	77	
1450	0	74	
1451	0	74	
1452	0	74	
1453	0	74	
1454	0	72	
1455	0	75	
1456	0	73	
1457	0	75	
1458	0	73	
1459	0	74	
1460	0	75	
1461	0	73	
1462	0	73	
1463	0	76	
1464	0	76	
1465	0	74	
1466	0	74	
1467	0	74	
1468	0	75	
1469	0	76	
1470	0	76	
1471	0	75	
1472	0	77	
1473	0	75	
1474	0	75	
1475	0	78	
1476	0	77	
1477	0	78	
1478	0	77	
1479	0	80	
1480	0	78	
1481	0	82	
1482	0	80	
1483	0	81	
1484	0	83	
1485	0	84	
1486	0	83	
1487	0	83	
1488	0	84	
1489	0	83	
1490	0	82	
1491	0	84	
1492	0	84	
1493	0	86	
1494	0	85	
1495	0	90	
1496	0	90	
1497	0	94	
1498	0	98	
1499	0	99	
1500	0	98	
1501	0	99	
1502	0	97	
1503	0	97	
1504	0	94	
1505	0	92	
1506	0	91	
1507	0	88	
1508	0	87	
1509	0	84	
1510	0	81	
1511	0	77	
1512	0	79	
1513	0	77	
1514	0	74	
1515	0	72	
1516	0	72	
1517	0	72	
1518	0	71	
1519	0	71	
1520	0	74	
1521	0	75	
1522	0	75	
1523	0	77	
1524	0	79	
1525	0	81	
1526	0	83	
1527	0	84	
1528	0	86	
1529	0	88	
1530	0	89	
1531	0	90	
1532	0	92	
1533	0	92	
1534	0	94	
1535	0	96	
1536	0	98	
1537	0	98	
1538	0	97	
1539	0	98	
1540	0	97	
1541	0	98	
1542	0	98	
1543	0	98	
1544	0	98	
1545	0	99	
1546	0	98	
1547	0	100	
1548	0	98	
1549	0	96	
1550	0	96	
1551	0	97	
1552	0	95	
1553	0	95	
1554	0	94	
1555	0	93	
1556	0	93	
1557	0	93	
1558	0	96	
1559	0	92	
1560	0	94	
1561	0	94	
1562	0	94	
1563	0	96	
1564	0	94	
1565	0	92	
1566	0	92	
1567	0	93	
1568	0	94	
1569	0	92	
1570	0	93	
1571	0	93	
1572	0	93	
1573	0	92	
1574	0	94	
1575	0	93	
1576	0	94	
1577	0	96	
1578	0	96	
1579	0	95	
1580	0	96	
1581	0	97	
1582	0	95	
1583	0	95	
1584	0	95	
1585	0	97	
1586	0	95	
1587	0	95	
1588	0	96	
1589	0	92	
1590	0	90	
1591	0	88	
1592	0	84	
1593	0	80	
1594	0	77	
1595	0	75	
1596	0	71	
1597	0	68	
1598	0	66	
1599	0	65	
1600	0	63	
1601	0	62	
1602	0	59	
1603	0	58	
1604	0	58	
1605	0	55	
1606	0	55	
1607	0	56	
1608	0	54	
1609	0	53	
1610	0	55	
1611	0	53	
1612	0	54	
1613	0	54	
1614	0	53	
1615	0	54	
1616	0	52	
1617	0	54	
1618	0	55	
1619	0	52	
1620	0	54	
1621	0	55	
1622	0	54	
1623	0	54	
1624	0	53	
1625	0	51	
1626	0	51	
1627	0	52	
1628	0	51	
1629	0	51	
1630	0	50	
1631	0	48	
1632	0	48	
1633	0	46	
1634	0	47	
1635	0	46	
1636	0	46	
1637	0	45	
1638	0	43	
1639	0	45	
1640	0	43	
1641	0	45	
1642	0	42	
1643	0	44	
1644	0	43	
1645	0	43	
1646	0	43	
1647	0	43	
1648	0	44	
1649	0	43	
1650	0	44	
1651	0	41	
1652	0	42	
1653	0	42	
1654	0	42	
1655	0	41	
1656	0	41	
1657	0	43	
1658	0	40	
1659	0	42	
1660	0	41	
1661	0	41	
1662	0	42	
1663	0	42	
1664	0	41	
1665	0	42	
1666	0	41	
1667	0	41	
1668	0	41	
1669	0	41	
1670	0	41	
1671	0	40	
1672	0	41	
1673	0	39	
1674	0	39	
1675	0	40	
1676	0	38	
1677	0	39	
1678	0	38	
1679	0	40	
1680	0	39	
1681	0	37	
1682	0	38	
1683	0	36	
1684	0	37	
1685	0	34	
1686	0	37	
1687	0	35	
1688	0	35	
1689	0	36	
1690	0	34	
1691	0	35	
1692	0	34	
1693	0	33	
1694	0	33	
1695	0	32	
1696	0	33	
1697	0	33	
1698	0	30	
1699	0	32	
1700	0	31	
1701	0	31	
1702	0	31	
1703	0	32	
1704	0	32	
1705	0	31	
1706	0	32	
1707	0	32	
1708	0	30	
1709	0	32	
1710	0	30	
1711	0	31	
1712	0	32	
1713	0	32	
1714	0	30	
1715	0	31	
1716	0	32	
1717	0	31	
1718	0	32	
1719	0	31	
1720	0	31	
1721	0	31	
1722	0	32	
1723	0	31	
1724	0	32	
1725	0	32	
1726	0	30	
1727	0	32	
1728	0	31	
1729	0	31	
1730	0	31	
1731	0	32	
1732	0	30	
1733	0	31	
1734	0	32	
1735	0	31	
1736	0	31	
1737	0	31	
1738	0	32	
1739	0	32	
1740	0	30	
1741	0	32	
1742	0	32	
1743	0	32	
1744	0	32	
1745	0	31	
1746	0	31	
1747	0	31	
1748	0	31	
1749	0	30	
1750	0	32	
1751	0	31	
1752	0	31	
1753	0	31	
1754	0	31	
1755	0	30	
1756	0	31	
1757	0	31	
1758	0	30	
1759	0	31	
1760	0	31	
1761	0	31	
1762	0	32	
1763	0	33	
1764	0	33	
1765	0	32	
1766	0	31	
1767	0	32	
1768	0	33	
1769	0	33	
1770	0	32	
1771	0	32	
1772	0	32	
1773	0	31	
1774	0	31	
1775	0	32	
1776	0	32	
1777	0	31	
1778	0	32	
1779	0	32	
1780	0	31	
1781	0	31	
1782	0	31	
1783	0	32	
1784	0	31	
1785	0	31	
1786	0	32	
1787	0	31	
1788	0	31	
1789	0	32	
1790	0	31	
1791	0	31	
1792	0	31	
1793	0	32	
1794	0	32	
1795	0	31	
1796	0	31	
1797	0	30	
1798	0	32	
1799	0	32	
1800	0	31	
1801	0	31	
1802	0	30	
1803	0	32	
1804	0	31	
1805	0	31	
1806	0	30	
1807	0	31	
1808	0	31	
1809	0	31	
1810	0	31	
1811	0	31	
1812	0	31	
1813	0	31	
1814	0	30	
1815	0	32	
1816	0	30	
1817	0	31	
1818	0	31	
1819	0	30	
1820	0	30	
1821	0	30	
1822	0	31	
1823	0	30	
1824	0	32	
1825	0	31	
1826	0	34	
1827	0	34	
1828	0	33	
1829	0	33	
1830	0	34	
1831	0	34	
1832	0	35	
1833	0	35	
1834	0	36	
1835	0	35	
1836	0	36	
1837	0	37	
1838	0	38	
1839	0	38	
1840	0	38	
1841	0	40	
1842	0	41	
1843	0	42	
1844	0	42	
1845	0	43	
1846	0	44	
1847	0	45	
1848	0	45	
1849	0	45	
1850	0	47	
1851	0	48	
1852	0	47	
1853	0	49	
1854	0	48	
1855	0	50	
1856	0	49	
1857	0	51	
1858	0	51	
1859	0	53	
1860	0	53	
1861	0	55	
1862	0	56	
1863	0	60	
1864	0	57	
1865	0	59	
1866	0	59	
1867	0	61	
1868	0	61	
1869	0	64	
1870	0	61	
1871	0	63	
1872	0	64	
1873	0	64	
1874	0	66	
1875	0	67	
1876	0	66	
1877	0	68	
1878	0	69	
1879	0	69	
1880	0	70	
1881	0	71	
1882	0	70	
1883	0	72	
1884	0	75	
1885	0	77	
1886	0	75	
1887	0	76	
1888	0	79	
1889	0	78	
1890	0	79	
1891	0	79	
1892	0	81	
1893	0	80	
1894	0	81	
1895	0	84	
1896	0	83	
1897	0	85	
1898	0	84	
1899	0	83	
1900	0	85	
1901	0	83	
1902	0	83	
1903	0	84	
1904	0	83	
1905	0	83	
1906	0	82	
1907	0	81	
1908	0	83	
1909	0	81	
1910	0	81	
1911	0	80	
1912	0	81	
1913	0	79	
1914	0	80	
1915	0	80	
1916	0	80	
1917	0	80	
1918	0	81	
1919	0	82	
1920	0	82	
1921	0	83	
1922	0	83	
1923	0	83	
1924	0	86	
1925	0	85	
1926	0	87	
1927	0	88	
1928	0	88	
1929	0	89	
1930	0	90	
1931	0	89	
1932	0	91	
1933	0	91	
1934	0	92	
1935	0	92	
1936	0	94	
1937	0	94	
1938	0	94	
1939	0	95	
1940	0	97	
1941	0	100	
1942	0	98	
1943	0	99	
1944	0	100	
1945	0	99	
1946	0	99	
1947	0	102	
1948	0	99	
1949	0	98	
1950	0	98	
1951	0	98	
1952	0	98	
1953	0	96	
1954	0	96	
1955	0	96	
1956	0	95	
1957	0	93	
1958	0	95	
1959	0	94	
1960	0	93	
1961	0	92	
1962	0	92	
1963	0	94	
1964	0	93	
1965	0	92	
1966	0	92	
1967	0	92	
1968	0	93	
1969	0	93	
1970	0	93	
1971	0	92	
1972	0	92	
1973	0	92	
1974	0	90	
1975	0	94	
1976	0	93	
1977	0	95	
1978	0	92	
1979	0	94	
1980	0	94	
1981	0	93	
1982	0	94	
1983	0	97	
1984	0	97	
1985	0	98	
1986	0	98	
1987	0	98	
1988	0	97	
1989	0	97	
1990	0	98	
1991	0	98	
1992	0	98	
1993	0	99	
1994	0	98	
1995	0	100	
1996	0	101	
1997	0	98	
1998	0	98	
1999	0	103	
2000	0	102	
2001	0	100	
2002	0	103	
2003	0	105	
2004	0	105	
2005	0	103	
2006	0	106	
2007	0	105	
2008	0	104	
2009	0	103	
2010	0	105	
2011	0	105	
2012	0	104	
2013	0	104	
2014	0	103	
2015	0	102	
2016	0	104	
2017	0	100	
2018	0	99	
2019	0	100	
2020	0	98	
2021	0	98	
2022	0	97	
2023	0	96	
2024	0	98	
2025	0	94	
2026	0	94	
2027	0	93	
2028	0	92	
2029	0	91	
2030	0	91	
2031	0	90	
2032	0	88	
2033	0	89	
2034	0	89	
2035	0	87	
2036	0	86	
2037	0	86	
2038	0	87	
2039	0	89	
2040	0	86	
2041	0	85	
2042	0	87	
2043	0	85	
2044	0	87	
2045	0	86	
2046	0	82	
2047	0	86	
2048	0	84	
2049	0	84	
2050	0	83	
2051	0	83	
2052	0	82	
2053	0	82	
2054	0	78	
2055	0	80	
2056	0	81	
2057	0	80	
2058	0	80	
2059	0	81	
2060	0	80	
2061	0	80	
2062	0	77	
2063	0	79	
2064	0	80	
2065	0	79	
2066	0	77	
2067	0	77	
2068	0	78	
2069	0	77	
2070	0	76	
2071	0	77	
2072	0	76	
2073	0	76	
2074	0	76	
2075	0	74	
2076	0	75	
2077	0	76	
2078	0	74	
2079	0	73	
2080	0	74	
2081	0	75	
2082	0	73	
2083	0	73	
2084	0	75	
2085	0	74	
2086	0	75	
2087	0	75	
2088	0	75	
2089	0	73	
2090	0	75	
2091	0	74	
2092	0	73	
2093	0	74	
2094	0	75	
2095	0	74	
2096	0	75	
2097	0	74	
2098	0	75	
2099	0	77	
2100	0	76	
2101	0	76	
2102	0	78	
2103	0	78	
2104	0	80	
2105	0	82	
2106	0	80	
2107	0	81	
2108	0	78	
2109	0	80	
2110	0	81	
2111	0	78	
2112	0	78	
2113	0	80	
2114	0	79	
2115	0	79	
2116	0	77	
2117	0	77	
2118	0	77	
2119	0	76	
2120	0	78	
2121	0	77	
2122	0	76	
2123	0	78	
2124	0	78	
2125	0	78	
2126	0	77	
2127	0	78	
2128	0	75	
2129	0	76	
2130	0	76	
2131	0	75	
2132	0	76	
2133	0	75	
2134	0	76	
2135	0	74	
2136	0	74	
2137	0	76	
2138	0	76	
2139	0	74	
2140	0	76	
2141	0	73	
2142	0	74	
2143	0	75	
2144	0	75	
2145	0	73	
2146	0	72	
2147	0	75	
2148	0	73	
2149	0	75	
2150	0	72	
2151	0	72	
2152	0	73	
2153	0	74	
2154	0	72	
2155	0	70	
2156	0	70	
2157	0	71	
2158	0	70	
2159	0	71	
2160	0	70	
2161	0	68	
2162	0	68	
2163	0	71	
2164	0	68	
2165	0	67	
2166	0	66	
2167	0	66	
2168	0	65	
2169	0	63	
2170	0	64	
2171	0	63	
2172	0	62	
2173	0	64	
2174	0	62	
2175	0	61	
2176	0	59	
2177	0	60	
2178	0	58	
2179	0	59	
2180	0	59	
2181	0	60	
2182	0	58	
2183	0	58	
2184	0	58	
2185	0	55	
2186	0	56	
2187	0	55	
2188	0	55	
2189	0	54	
2190	0	52	
2191	0	52	
2192	0	52	
2193	0	51	
2194	0	50	
2195	0	52	
2196	0	51	
2197	0	51	
2198	0	49	
2199	0	49	
2200	0	46	
2201	0	48	
2202	0	45	
2203	0	46	
2204	0	47	
2205	0	46	
2206	0	44	
2207	0	44	
2208	0	43	
2209	0	42	
2210	0	40	
2211	0	39	
2212	0	41	
2213	0	39	
2214	0	36	
2215	0	37	
2216	0	36	
2217	0	35	
2218	0	35	
2219	0	35	
2220	0	33	
2221	0	33	
2222	0	32	
2223	0	31	
2224	0	31	
2225	0	32	
2226	0	31	
2227	0	31	
2228	0	31	
2229	0	31	
2230	0	32	
2231	0	31	
2232	0	32	
2233	0	31	
2234	0	30	
2235	0	31	
2236	0	32	
2237	0	30	
2238	0	30	
2239	0	30	
2240	0	31	
2241	0	31	
2242	0	30	
2243	0	31	
2244	0	31	
2245	0	31	
2246	0	31	
2247	0	31	
2248	0	32	
2249	0	32	
2250	0	32	
2251	0	31	
2252	0	31	
2253	0	31	
2254	0	31	
2255	0	31	
2256	0	32	
2257	0	32	
2258	0	30	
2259	0	31	
2260	0	30	
2261	0	31	
2262	0	32	
2263	0	31	
2264	0	31	
2265	0	31	
2266	0	31	
2267	0	31	
2268	0	33	
2269	0	32	
2270	0	32	
2271	0	30	
2272	0	31	
2273	0	31	
2274	0	31	
2275	0	32	
2276	0	31	
2277	0	31	
2278	0	31	
2279	0	31	
2280	0	31	
2281	0	30	
2282	0	31	
2283	0	31	
2284	0	33	
2285	0	30	
2286	0	32	
2287	0	31	
2288	0	32	
2289	0	31	
2290	0	31	
2291	0	31	
2292	0	31	
2293	0	30	
2294	0	31	
2295	0	32	
2296	0	31	
2297	0	31	
2298	0	31	
2299	0	32	
2300	0	30	
2301	0	30	
2302	0	31	
2303	0	31	
2304	0	31	
2305	0	32	
2306	0	32	
2307	0	31	
2308	0	32	
2309	0	31	
2310	0	31	
2311	0	32	
2312	0	32	
2313	0	32	
2314	0	31	
2315	0	31	
2316	0	31	
2317	0	31	
2318	0	31	
2319	0	31	
2320	0	31	
2321	0	32	
2322	0	32	
2323	0	30	
2324	0	31	
2325	0	30	
2326	0	31	
2327	0	31	
2328	0	31	
2329	0	32	
2330	0	31	
2331	0	32	
2332	0	32	
2333	0	32	
2334	0	32	
2335	0	30	
2336	0	31	
2337	0	31	
2338	0	31	
2339	0	32	
2340	0	32	
2341	0	32	
2342	0	32	
2343	0	32	
2344	0	31	
2345	0	31	
2346	0	31	
2347	0	31	
2348	0	31	
2349	0	30	
2350	0	31	
2351	0	31	
2352	0	31	
2353	0	31	
2354	0	31	
2355	0	32	
2356	0	31	
2357	0	32	
2358	0	32	
2359	0	31	
2360	0	32	
2361	0	32	
2362	0	31	
2363	0	32	
2364	0	30	
2365	0	31	
2366	0	31	
2367	0	31	
2368	0	31	
2369	0	31	
2370	0	31	
2371	0	31	
2372	0	31	
2373	0	31	
2374	0	31	
2375	0	31	
2376	0	31	
2377	0	31	
2378	0	30	
2379	0	30	
2380	0	31	
2381	0	31	
2382	0	32	
2383	0	31	
2384	0	31	
2385	0	31	
2386	0	32	
2387	0	32	
2388	0	31	
2389	0	30	
2390	0	31	
2391	0	30	
2392	0	32	
2393	0	31	
2394	0	32	
2395	0	31	
2396	0	31	
2397	0	31	
2398	0	31	
2399	0	31	
2400	0	31	
2401	0	30	
2402	0	31	
2403	0	32	
2404	0	32	
2405	0	32	
2406	0	31	
2407	0	31	
2408	0	32	
2409	0	31	
2410	0	32	
2411	0	30	
2412	0	31	
2413	0	33	
2414	0	31	
2415	0	32	
2416	0	31	
2417	0	32	
2418	0	31	
2419	0	30	
2420	0	30	
2421	0	31	
2422	0	32	
2423	0	31	
2424	0	32	
2425	0	31	
2426	0	32	
2427	0	31	
2428	0	32	
2429	0	31	
2430	0	30	
2431	0	31	
2432	0	32	
2433	0	31	
2434	0	31	
2435	0	31	
2436	0	31	
2437	0	31	
2438	0	31	
2439	0	31	
2440	0	32	
2441	0	30	
2442	0	32	
2443	0	31	
2444	0	32	
2445	0	32	
2446	0	31	
2447	0	30	
2448	0	31	
2449	0	31	
2450	0	32	
2451	0	31	
2452	0	30	
2453	0	31	
2454	0	30	
2455	0	31	
2456	0	31	
2457	0	30	
2458	0	30	
2459	0	31	
2460	0	31	
2461	0	32	
2462	0	32	
2463	0	31	
2464	0	31	
2465	0	32	
2466	0	31	
2467	0	32	
2468	0	31	
2469	0	32	
2470	0	31	
2471	0	31	
2472	0	30	
2473	0	32	
2474	0	30	
2475	0	32	
2476	0	31	
2477	0	30	
2478	0	31	
2479	0	32	
2480	0	31	
2481	0	30	
2482	0	30	
2483	0	29	
2484	0	31	
2485	0	30	
2486	0	32	
2487	0	31	
2488	0	31	
2489	0	32	
2490	0	31	
2491	0	31	
2492	0	32	
2493	0	32	
2494	0	31	
2495	0	32	
2496	0	31	
2497	0	33	
2498	0	30	
2499	0	32	
2500	0	31	
2501	0	31	
2502	0	31	
2503	0	30	
2504	0	31	
2505	0	31	
2506	0	30	
2507	0	32	
2508	0	31	
2509	0	32	
2510	0	30	
2511	0	31	
2512	0	31	
2513	0	31	
2514	0	31	
2515	0	32	
2516	0	31	
2517	0	31	
2518	0	32	
2519	0	33	
2520	0	34	
2521	0	37	
2522	0	34	
2523	0	36	
2524	0	39	
2525	0	37	
2526	0	38	
2527	0	41	
2528	0	42	
2529	0	41	
2530	0	42	
2531	0	45	
2532	0	45	
2533	0	46	
2534	0	47	
2535	0	48	
2536	0	50	
2537	0	50	
2538	0	51	
2539	0	52	
2540	0	53	
2541	0	54	
2542	0	56	
2543	0	56	
2544	0	56	
2545	0	58	
2546	0	59	
2547	0	60	
2548	0	61	
2549	0	62	
2550	0	63	
2551	0	64	
2552	0	64	
2553	0	65	
2554	0	67	
2555	0	68	
2556	0	70	
2557	0	70	
2558	0	71	
2559	0	74	
2560	0	72	
2561	0	72	
2562	0	75	
2563	0	76	
2564	0	76	
2565	0	80	
2566	0	78	
2567	0	79	
2568	0	81	
2569	0	81	
2570	0	83	
2571	0	85	
2572	0	85	
2573	0	86	
2574	0	86	
2575	0	86	
2576	0	91	
2577	0	90	
2578	0	91	
2579	0	93	
2580	0	93	
2581	0	91	
2582	0	95	
2583	0	95	
2584	0	96	
2585	0	96	
2586	0	98	
2587	0	98	
2588	0	98	
2589	0	98	
2590	0	100	
2591	0	101	
2592	0	101	
2593	0	103	
2594	0	103	
2595	0	105	
2596	0	106	
2597	0	106	
2598	0	106	
2599	0	109	
2600	0	108	
2601	0	109	
2602	0	108	
2603	0	111	
2604	0	113	
2605	0	113	
2606	0	113	
2607	0	114	
2608	0	115	
2609	0	115	
2610	0	114	
2611	0	115	
2612	0	118	
2613	0	118	
2614	0	118	
2615	0	119	
2616	0	121	
2617	0	122	
2618	0	124	
2619	0	123	
2620	0	123	
2621	0	126	
2622	0	125	
2623	0	126	
2624	0	126	
2625	0	125	
2626	0	126	
2627	0	129	
2628	0	125	
2629	0	125	
2630	0	127	
2631	0	125	
2632	0	128	
2633	0	127	
2634	0	129	
2635	0	129	
2636	0	128	
2637	0	128	
2638	0	128	
2639	0	128	
2640	0	130	
2641	0	129	
2642	0	130	
2643	0	130	
2644	0	130	
2645	0	131	
2646	0	129	
2647	0	129	
2648	0	130	
2649	0	130	
2650	0	128	
2651	0	129	
2652	0	129	
2653	0	127	
2654	0	128	
2655	0	129	
2656	0	128	
2657	0	128	
2658	0	129	
2659	0	127	
2660	0	127	
2661	0	127	
2662	0	125	
2663	0	125	
2664	0	123	
2665	0	122	
2666	0	122	
2667	0	120	
2668	0	122	
2669	0	120	
2670	0	119	
2671	0	118	
2672	0	117	
2673	0	117	
2674	0	117	
2675	0	118	
2676	0	117	
2677	0	119	
2678	0	117	
2679	0	116	
2680	0	118	
2681	0	118	
2682	0	119	
2683	0	118	
2684	0	118	
2685	0	114	
2686	0	116	
2687	0	114	
2688	0	115	
2689	0	113	
2690	0	112	
2691	0	112	
2692	0	110	
2693	0	111	
2694	0	109	
2695	0	108	
2696	0	107	
2697	0	106	
2698	0	106	
2699	0	105	
2700	0	105	
2701	0	105	
2702	0	102	
2703	0	104	
2704	0	104	
2705	0	101	
2706	0	100	
2707	0	98	
2708	0	98	
2709	0	98	
2710	0	96	
2711	0	97	
2712	0	96	
2713	0	95	
2714	0	94	
2715	0	94	
2716	0	94	
2717	0	93	
2718	0	93	
2719	0	92	
2720	0	92	
2721	0	93	
2722	0	91	
2723	0	90	
2724	0	89	
2725	0	87	
2726	0	84	
2727	0	82	
2728	0	80	
2729	0	80	
2730	0	78	
2731	0	74	
2732	0	75	
2733	0	75	
2734	0	73	
2735	0	72	
2736	0	70	
2737	0	70	
2738	0	69	
2739	0	68	
2740	0	65	
2741	0	66	
2742	0	64	
2743	0	63	
2744	0	62	
2745	0	60	
2746	0	59	
2747	0	57	
2748	0	53	
2749	0	54	
2750	0	53	
2751	0	51	
2752	0	51	
2753	0	49	
2754	0	48	
2755	0	48	
2756	0	47	
2757	0	45	
2758	0	46	
2759	0	45	
2760	0	42	
2761	0	40	
2762	0	41	
2763	0	40	
2764	0	38	
2765	0	39	
2766	0	36	
2767	0	34	
2768	0	33	
2769	0	32	
2770	0	34	
2771	0	32	
2772	0	32	
2773	0	32	
2774	0	31	
2775	0	32	
2776	0	31	
2777	0	32	
2778	0	32	
2779	0	31	
2780	0	31	
2781	0	31	
2782	0	30	
2783	0	31	
2784	0	32	
2785	0	31	
2786	0	31	
2787	0	31	
2788	0	31	
2789	0	31	
2790	0	32	
2791	0	30	
2792	0	32	
2793	0	31	
2794	0	32	
2795	0	32	
2796	0	30	
2797	0	31	
2798	0	30	
2799	0	32	
2800	0	32	
2801	0	31	
2802	0	31	
2803	0	32	
2804	0	31	
2805	0	32	
2806	0	30	
2807	0	31	
2808	0	33	
2809	0	31	
2810	0	32	
2811	0	31	
2812	0	32	
2813	0	31	
2814	0	32	
2815	0	31	
2816	0	32	
2817	0	32	
2818	0	31	
2819	0	31	
2820	0	31	
2821	0	31	
2822	0	32	
2823	0	31	
2824	0	32	
2825	0	31	
2826	0	31	
2827	0	31	
2828	0	31	
2829	0	32	
2830	0	30	
2831	0	31	
2832	0	30	
2833	0	30	
2834	0	31	
2835	0	31	
2836	0	30	
2837	0	32	
2838	0	31	
2839	0	31	
2840	0	31	
2841	0	32	
2842	0	29	
2843	0	31	
2844	0	31	
2845	0	30	
2846	0	31	
2847	0	31	
2848	0	32	
2849	0	31	
2850	0	31	
2851	0	31	
2852	0	32	
2853	0	31	
2854	0	32	
2855	0	30	
2856	0	29	
2857	0	31	
2858	0	30	
2859	0	32	
2860	0	31	
2861	0	31	
2862	0	31	
2863	0	31	
2864	0	31	
2865	0	32	
2866	0	31	
2867	0	31	
2868	0	32	
2869	0	32	
2870	0	31	
2871	0	32	
2872	0	32	
2873	0	30	
2874	0	32	
2875	0	31	
2876	0	31	
2877	0	32	
2878	0	30	
2879	0	31	
2880	0	31	
2881	0	30	
2882	0	32	
2883	0	30	
2884	0	31	
2885	0	31	
2886	0	31	
2887	0	31	
2888	0	31	
2889	0	32	
2890	0	32	
2891	0	32	
2892	0	31	
2893	0	30	
2894	0	30	
2895	0	31	
2896	0	32	
2897	0	32	
2898	0	31	
2899	0	31	
2900	0	30	
2901	0	31	
2902	0	31	
2903	0	32	
2904	0	32	
2905	0	32	
2906	0	31	
2907	0	31	
2908	0	31	
2909	0	31	
2910	0	30	
2911	0	31	
2912	0	31	
2913	0	31	
2914	0	30	
2915	0	32	
2916	0	31	
2917	0	31	
2918	0	30	
2919	0	31	
2920	0	30	
2921	0	30	
2922	0	31	
2923	0	32	
2924	0	31	
2925	0	32	
2926	0	30	
2927	0	31	
2928	0	31	
2929	0	31	
2930	0	32	
2931	0	30	
2932	0	30	
2933	0	31	
2934	0	30	
2935	0	31	
2936	0	31	
2937	0	31	
2938	0	31	
2939	0	31	
2940	0	31	
2941	0	32	
2942	0	31	
2943	0	31	
2944	0	31	
2945	0	31	
2946	0	31	
2947	0	31	
2948	0	32	
2949	0	30	
2950	0	30	
2951	0	32	
2952	0	31	
2953	0	32	
2954	0	32	
2955	0	31	
2956	0	31	
2957	0	32	
2958	0	31	
2959	0	31	
2960	0	31	
2961	0	31	
2962	0	31	
2963	0	31	
2964	0	30	
2965	0	31	
2966	0	30	
2967	0	31	
2968	0	31	
2969	0	30	
2970	0	31	
2971	0	32	
2972	0	31	
2973	0	30	
2974	0	31	
2975	0	30	
2976	0	31	
2977	0	31	
2978	0	32	
2979	0	32	
2980	0	30	
2981	0	31	
2982	0	30	
2983	0	32	
2984	0	30	
2985	0	31	
2986	0	31	
2987	0	30	
2988	0	31	
2989	0	32	
2990	0	31	
2991	0	30	
2992	0	31	
2993	0	31	
2994	0	30	
2995	0	30	
2996	0	31	
2997	0	31	
2998	0	30	
2999	0	32	
3000	0	32	
3001	0	32	
3002	0	31	
3003	0	31	
3004	0	31	
3005	0	31	
3006	0	30	
3007	0	30	
3008	0	32	
3009	0	30	
3010	0	32	
3011	0	30	
3012	0	30	
3013	0	31	
3014	0	30	
3015	0	31	
3016	0	29	
3017	0	31	
3018	0	30	
3019	0	31	
3020	0	30	
3021	0	31	
3022	0	32	
3023	0	31	
3024	0	31	
3025	0	31	
3026	0	31	
3027	0	31	
3028	0	31	
3029	0	30	
3030	0	31	
3031	0	31	
3032	0	30	
3033	0	31	
3034	0	31	
3035	0	30	
3036	0	30	
3037	0	30	
3038	0	30	
3039	0	30	
3040	0	31	
3041	0	31	
3042	0	31	
3043	0	32	
3044	0	31	
3045	0	31	
3046	0	31	
3047	0	31	
3048	0	31	
3049	0	31	
3050	0	30	
3051	0	30	
3052	0	31	
3053	0	32	
3054	0	31	
3055	0	31	
3056	0	31	
3057	0	31	
3058	0	31	
3059	0	30	
3060	0	32	
3061	0	31	
3062	0	31	
3063	0	31	
3064	0	31	
3065	0	31	
3066	0	32	
3067	0	32	
3068	0	32	
3069	0	31	
3070	0	31	
3071	0	31	
3072	0	30	
3073	0	31	
3074	0	31	
3075	0	30	
3076	0	30	
3077	0	32	
3078	0	31	
3079	0	32	
3080	0	30	
3081	0	32	
3082	0	30	
3083	0	31	
3084	0	32	
3085	0	31	
3086	0	32	
3087	0	31	
3088	0	30	
3089	0	31	
3090	0	32	
3091	0	32	
3092	0	31	
3093	0	31	
3094	0	31	
3095	0	32	
3096	0	31	
3097	0	31	
3098	0	31	
3099	0	31	
3100	0	31	
3101	0	31	
3102	0	31	
3103	0	31	
3104	0	33	
3105	0	30	
3106	0	31	
3107	0	31	
3108	0	31	
3109	0	31	
3110	0	31	
3111	0	32	
3112	0	30	
3113	0	31	
3114	0	32	
3115	0	32	
3116	0	31	
3117	0	31	
3118	0	31	
3119	0	31	
3120	0	32	
3121	0	31	
3122	0	31	
3123	0	31	
3124	0	31	
3125	0	31	
3126	0	30	
3127	0	30	
3128	0	31	
3129	0	31	
3130	0	30	
3131	0	31	
3132	0	32	
3133	0	30	
3134	0	31	
3135	0	31	
3136	0	31	
3137	0	31	
3138	0	30	
3139	0	31	
3140	0	30	
3141	0	31	
3142	0	31	
3143	0	31	
3144	0	31	
3145	0	32	
3146	0	31	
3147	0	31	
3148	0	32	
3149	0	32	
3150	0	30	
3151	0	31	
3152	0	31	
3153	0	32	
3154	0	32	
3155	0	31	
3156	0	31	
3157	0	30	
3158	0	32	
3159	0	32	
3160	0	32	
3161	0	31	
3162	0	30	
3163	0	31	
3164	0	31	
3165	0	30	
3166	0	31	
3167	0	31	
3168	0	31	
3169	0	31	
3170	0	31	
3171	0	31	
3172	0	32	
3173	0	32	
3174	0	32	
3175	0	31	
3176	0	31	
3177	0	30	
3178	0	32	
3179	0	32	
3180	0	32	
3181	0	31	
3182	0	32	
3183	0	34	
3184	0	36	
3185	0	37	
3186	0	38	
3187	0	41	
3188	0	40	
3189	0	45	
3190	0	47	
3191	0	48	
3192	0	51	
3193	0	53	
3194	0	55	
3195	0	60	
3196	0	60	
3197	0	64	
3198	0	66	
3199	0	67	
3200	0	71	
3201	0	74	
3202	0	74	
3203	0	78	
3204	0	79	
3205	0	81	
3206	0	84	
3207	0	86	
3208	0	90	
3209	0	94	
3210	0	96	
3211	0	97	
3212	0	101	
3213	0	101	
3214	0	107	
3215	0	110	
3216	0	109	
3217	0	113	
3218	0	115	
3219	0	116	
3220	0	121	
3221	0	121	
3222	0	125	
3223	0	125	
3224	0	128	
3225	0	130	
3226	0	132	
3227	0	132	
3228	0	132	
3229	0	135	
3230	0	137	
3231	0	143	
3232	0	143	
3233	0	148	
3234	0	147	
3235	0	150	
3236	0	151	
3237	0	154	
3238	0	154	
3239	0	156	
3240	0	156	
3241	0	156	
3242	0	159	
3243	0	157	
3244	0	160	
3245	0	159	
3246	0	159	
3247	0	161	
3248	0	161	
3249	0	162	
3250	0	162	
3251	0	162	
3252	0	162	
3253	0	166	
3254	0	164	
3255	0	166	
3256	0	166	
3257	0	169	
3258	0	165	
3259	0	170	
3260	0	166	
3261	0	166	
3262	0	164	
3263	0	166	
3264	0	166	
3265	0	165	
3266	0	164	
3267	0	165	
3268	0	165	
3269	0	161	
3270	0	162	
3271	0	163	
3272	0	164	
3273	0	161	
3274	0	161	
3275	0	163	
3276	0	166	
3277	0	163	
3278	0	162	
3279	0	163	
3280	0	162	
3281	0	161	
3282	0	161	
3283	0	162	
3284	0	161	
3285	0	160	
3286	0	158	
3287	0	157	
3288	0	157	
3289	0	156	
3290	0	155	
3291	0	154	
3292	0	155	
3293	0	155	
3294	0	154	
3295	0	154	
3296	0	154	
3297	0	154	
3298	0	154	
3299	0	149	
3300	0	151	
3301	0	150	
3302	0	149	
3303	0	148	
3304	0	144	
3305	0	145	
3306	0	144	
3307	0	142	
3308	0	141	
3309	0	140	
3310	0	140	
3311	0	139	
3312	0	138	
3313	0	136	
3314	0	139	
3315	0	134	
3316	0	135	
3317	0	136	
3318	0	131	
3319	0	132	
3320	0	131	
3321	0	130	
3322	0	128	
3323	0	128	
3324	0	126	
3325	0	124	
3326	0	122	
3327	0	123	
3328	0	120	
3329	0	122	
3330	0	119	
3331	0	120	
3332	0	118	
3333	0	118	
3334	0	120	
3335	0	118	
3336	0	118	
3337	0	116	
3338	0	115	
3339	0	116	
3340	0	115	
3341	0	117	
3342	0	114	
3343	0	114	
3344	0	114	
3345	0	115	
3346	0	115	
3347	0	112	
3348	0	114	
3349	0	115	
3350	0	116	
3351	0	116	
3352	0	117	
3353	0	118	
3354	0	118	
3355	0	121	
3356	0	122	
3357	0	122	
3358	0	120	
3359	0	123	
3360	0	124	
3361	0	127	
3362	0	126	
3363	0	127	
3364	0	129	
3365	0	130	
3366	0	130	
3367	0	132	
3368	0	133	
3369	0	134	
3370	0	137	
3371	0	137	
3372	0	140	
3373	0	140	
3374	0	143	
3375	0	147	
3376	0	146	
3377	0	149	
3378	0	149	
3379	0	151	
3380	0	152	
3381	0	155	
3382	0	155	
3383	0	156	
3384	0	158	
3385	0	160	
3386	0	161	
3387	0	162	
3388	0	163	
3389	0	165	
3390	0	167	
3391	0	167	
3392	0	170	
3393	0	169	
3394	0	174	
3395	0	176	
3396	0	177	
3397	0	179	
3398	0	179	
3399	0	184	
3400	0	185	
3401	0	186	
3402	0	188	
3403	0	190	
3404	0	190	
3405	0	194	
3406	0	192	
3407	0	196	
3408	0	195	
3409	0	199	
3410	0	201	
3411	0	201	
3412	0	203	
3413	0	208	
3414	0	210	
3415	0	209	
3416	0	213	
3417	0	216	
3418	0	219	
3419	0	223	
3420	0	220	
3421	0	224	
3422	0	224	
3423	0	225	
3424	0	226	
3425	0	227	
3426	0	230	
3427	0	230	
3428	0	232	
3429	0	231	
3430	0	234	
3431	0	235	
3432	0	237	
3433	0	241	
3434	0	245	
3435	0	248	
3436	0	249	
3437	0	252	
3438	0	253	
3439	0	256	
3440	0	258	
3441	0	261	
3442	0	262	
3443	0	266	
3444	0	271	
3445	0	273	
3446	0	274	
3447	0	279	
3448	0	283	
3449	0	284	
3450	0	287	
3451	0	292	
3452	0	296	
3453	0	299	
3454	0	304	
3455	0	308	
3456	0	315	
3457	0	315	
3458	0	322	
3459	0	322	
3460	0	326	
3461	0	332	
3462	0	334	
3463	0	337	
3464	0	342	
3465	0	341	
3466	0	349	
3467	0	353	
3468	0	355	
3469	0	357	
3470	0	361	
3471	0	367	
3472	0	373	
3473	0	377	
3474	0	383	
3475	0	383	
3476	0	387	
3477	0	392	
3478	0	401	
3479	0	402	
3480	0	407	
3481	0	411	
3482	0	415	
3483	0	417	
3484	0	424	
3485	0	424	
3486	0	425	
3487	0	430	
3488	0	435	
3489	0	437	
3490	0	441	
3491	0	442	
3492	0	447	
3493	0	452	
3494	0	454	
3495	0	458	
3496	0	456	
3497	0	466	
3498	0	468	
3499	0	471	
3500	0	471	
3501	0	469	
3502	0	476	
3503	0	472	
3504	0	480	
3505	0	481	
3506	0	480	
3507	0	482	
3508	0	483	
3509	0	482	
3510	0	484	
3511	0	487	
3512	0	486	
3513	0	491	
3514	0	490	
3515	0	492	
3516	0	491	
3517	0	493	
3518	0	494	
3519	0	491	
3520	0	494	
3521	0	492	
3522	0	492	
3523	0	487	
3524	0	488	
3525	0	487	
3526	0	483	
3527	0	482	
3528	0	484	
3529	0	481	
3530	0	481	
3531	0	482	
3532	0	481	
3533	0	477	
3534	0	478	
3535	0	474	
3536	0	474	
3537	0	473	
3538	0	473	
3539	0	467	
3540	0	465	
3541	0	463	
3542	0	465	
3543	0	458	
3544	0	454	
3545	0	454	
3546	0	448	
3547	0	447	
3548	0	443	
3549	0	445	
3550	0	443	
3551	0	442	
3552	0	439	
3553	0	436	
3554	0	432	
3555	0	433	
3556	0	429	
3557	0	427	
3558	0	424	
3559	0	422	
3560	0	417	
3561	0	418	
3562	0	413	
3563	0	409	
3564	0	408	
3565	0	401	
3566	0	397	
3567	0	395	
3568	0	394	
3569	0	391	
3570	0	388	
3571	0	385	
3572	0	379	
3573	0	379	
3574	0	377	
3575	0	375	
3576	0	373	
3577	0	368	
3578	0	367	
3579	0	366	
3580	0	361	
3581	0	359	
3582	0	354	
3583	0	354	
3584	0	349	
3585	0	345	
3586	0	347	
3587	0	340	
3588	0	338	
3589	0	332	
3590	0	332	
3591	0	328	
3592	0	328	
3593	0	327	
3594	0	325	
3595	0	320	
3596	0	320	
3597	0	317	
3598	0	313	
3599	0	313	
3600	0	311	
3601	0	305	
3602	0	302	
3603	0	302	
3604	0	299	
3605	0	296	
3606	0	292	
3607	0	289	
3608	0	286	
3609	0	288	
3610	0	285	
3611	0	281	
3612	0	280	
3613	0	278	
3614	0	275	
3615	0	275	
3616	0	273	
3617	0	270	
3618	0	268	
3619	0	266	
3620	0	263	
3621	0	262	
3622	0	258	
3623	0	255	
3624	0	251	
3625	0	248	
3626	0	245	
3627	0	242	
3628	0	242	
3629	0	238	
3630	0	237	
3631	0	234	
3632	0	234	
3633	0	235	
3634	0	231	
3635	0	230	
3636	0	229	
3637	0	228	
3638	0	227	
3639	0	223	
3640	0	225	
3641	0	221	
3642	0	220	
3643	0	215	
3644	0	213	
3645	0	211	
3646	0	208	
3647	0	204	
3648	0	205	
3649	0	203	
3650	0	200	
3651	0	199	
3652	0	199	
3653	0	197	
3654	0	196	
3655	0	195	
3656	0	194	
3657	0	194	
3658	0	193	
3659	0	191	
3660	0	191	
3661	0	187	
3662	0	182	
3663	0	181	
3664	0	179	
3665	0	178	
3666	0	176	
3667	0	173	
3668	0	170	
3669	0	168	
3670	0	164	
3671	0	167	
3672	0	163	
3673	0	162	
3674	0	162	
3675	0	160	
3676	0	155	
3677	0	155	
3678	0	151	
3679	0	149	
3680	0	143	
3681	0	141	
3682	0	135	
3683	0	132	
3684	0	126	
3685	0	122	
3686	0	117	
3687	0	114	
3688	0	108	
3689	0	104	
3690	0	100	
3691	0	98	
3692	0	94	
3693	0	91	
3694	0	86	
3695	0	82	
3696	0	79	
3697	0	75	
3698	0	71	
3699	0	68	
3700	0	67	
3701	0	64	
3702	0	61	
3703	0	60	
3704	0	56	
3705	0	54	
3706	0	54	
3707	0	51	
3708	0	49	
3709	0	50	
3710	0	50	
3711	0	50	
3712	0	49	
3713	0	50	
3714	0	49	
3715	0	48	
3716	0	49	
3717	0	46	
3718	0	46	
3719	0	43	
3720	0	40	
3721	0	39	
3722	0	35	
3723	0	32	
3724	0	32	
3725	0	31	
3726	0	31	
3727	0	32	
3728	0	32	
3729	0	31	
3730	0	32	
3731	0	32	
3732	0	31	
3733	0	32	
3734	0	31	
3735	0	31	
3736	0	31	
3737	0	31	
3738	0	30	
3739	0	30	
3740	0	32	
3741	0	31	
3742	0	31	
3743	0	31	
3744	0	31	
3745	0	31	
3746	0	32	
3747	0	32	
3748	0	31	
3749	0	31	
3750	0	31	
3751	0	30	
3752	0	32	
3753	0	32	
3754	0	30	
3755	0	31	
3756	0	32	
3757	0	31	
3758	0	32	
3759	0	31	
3760	0	31	
3761	0	31	
3762	0	31	
3763	0	31	
3764	0	31	
3765	0	32	
3766	0	30	
3767	0	31	
3768	0	32	
3769	0	30	
3770	0	30	
3771	0	31	
3772	0	31	
3773	0	31	
3774	0	31	
3775	0	32	
3776	0	31	
3777	0	31	
3778	0	31	
3779	0	31	
3780	0	31	
3781	0	32	
3782	0	30	
3783	0	32	
3784	0	31	
3785	0	31	
3786	0	30	
3787	0	31	
3788	0	31	
3789	0	31	
3790	0	30	
3791	0	30	
3792	0	31	
3793	0	30	
3794	0	31	
3795	0	31	
3796	0	31	
3797	0	32	
3798	0	31	
3799	0	31	
3800	0	32	
3801	0	31	
3802	0	31	
3803	0	30	
3804	0	31	
3805	0	32	
3806	0	30	
3807	0	31	
3808	0	32	
3809	0	31	
3810	0	32	
3811	0	31	
3812	0	31	
3813	0	31	
3814	0	31	
3815	0	31	
3816	0	31	
3817	0	32	
3818	0	30	
3819	0	32	
3820	0	31	
3821	0	31	
3822	0	30	
3823	0	31	
3824	0	30	
3825	0	31	
3826	0	31	
3827	0	30	
3828	0	31	
3829	0	32	
3830	0	30	
3831	0	31	
3832	0	31	
3833	0	29	
3834	0	31	
3835	0	31	
3836	0	30	
3837	0	31	
3838	0	32	
3839	0	31	
3840	0	31	
3841	0	31	
3842	0	31	
3843	0	31	
3844	0	30	
3845	0	30	
3846	0	31	
3847	0	30	
3848	0	31	
3849	0	30	
3850	0	31	
3851	0	31	
3852	0	31	
3853	0	30	
3854	0	31	
3855	0	31	
3856	0	32	
3857	0	31	
3858	0	32	
3859	0	31	
3860	0	32	
3861	0	30	
3862	0	30	
3863	0	32	
3864	0	32	
3865	0	31	
3866	0	32	
3867	0	31	
3868	0	31	
3869	0	32	
3870	0	32	
3871	0	32	
3872	0	31	
3873	0	30	
3874	0	32	
3875	0	31	
3876	0	31	
3877	0	32	
3878	0	30	
3879	0	30	
3880	0	31	
3881	0	30	
3882	0	31	
3883	0	31	
3884	0	30	
3885	0	32	
3886	0	31	
3887	0	31	
3888	0	31	
3889	0	31	
3890	0	31	
3891	0	31	
3892	0	32	
3893	0	30	
3894	0	31	
3895	0	31	
3896	0	32	
3897	0	30	
3898	0	31	
3899	0	31	
3900	0	31	
3901	0	30	
3902	0	32	
3903	0	30	
3904	0	30	
3905	0	32	
3906	0	32	
3907	0	31	
3908	0	31	
3909	0	31	
3910	0	31	
3911	0	31	
3912	0	32	
3913	0	31	
3914	0	31	
3915	0	32	
3916	0	32	
3917	0	31	
3918	0	31	
3919	0	32	
3920	0	30	
3921	0	31	
3922	0	32	
3923	0	32	
3924	0	30	
3925	0	32	
3926	0	32	
3927	0	32	
3928	0	30	
3929	0	31	
3930	0	31	
3931	0	32	
3932	0	32	
3933	0	31	
3934	0	32	
3935	0	31	
3936	0	31	
3937	0	32	
3938	0	32	
3939	0	31	
3940	0	31	
3941	0	31	
3942	0	31	
3943	0	32	
3944	0	30	
3945	0	32	
3946	0	30	
3947	0	30	
3948	0	32	
3949	0	31	
3950	0	30	
3951	0	32	
3952	0	31	
3953	0	31	
3954	0	31	
3955	0	31	
3956	0	31	
3957	0	30	
3958	0	30	
3959	0	31	
3960	0	30	
3961	0	32	
3962	0	30	
3963	0	31	
3964	0	31	
3965	0	31	
3966	0	31	
3967	0	32	
3968	0	31	
3969	0	31	
3970	0	33	
3971	0	31	
3972	0	31	
3973	0	30	
3974	0	31	
3975	0	30	
3976	0	30	
3977	0	30	
3978	0	31	
3979	0	31	
3980	0	32	
3981	0	32	
3982	0	31	
3983	0	31	
3984	0	32	
3985	0	30	
3986	0	32	
3987	0	31	
3988	0	30	
3989	0	30	
3990	0	31	
3991	0	32	
3992	0	30	
3993	0	33	
3994	0	30	
3995	0	30	
3996	0	31	
3997	0	31	
3998	0	31	
3999	0	31	
4000	0	32	
4001	0	31	
4002	0	32	
4003	0	32	
4004	0	31	
4005	0	31	
4006	0	30	
4007	0	31	
4008	0	32	
4009	0	31	
4010	0	30	
4011	0	32	
4012	0	31	
4013	0	32	
4014	0	30	
4015	0	31	
4016	0	31	
4017	0	31	
4018	0	32	
4019	0	31	
4020	0	32	
4021	0	30	
4022	0	31	
4023	0	31	
4024	0	31	
4025	0	30	
4026	0	30	
4027	0	32	
4028	0	31	
4029	0	32	
4030	0	31	
4031	0	31	
4032	0	31	
4033	0	32	
4034	0	30	
4035	0	31	
4036	0	31	
4037	0	31	
4038	0	31	
4039	0	31	
4040	0	31	
4041	0	30	
4042	0	30	
4043	0	31	
4044	0	32	
4045	0	32	
4046	0	31	
4047	0	33	
4048	0	31	
4049	0	31	
4050	0	29	
4051	0	31	
4052	0	31	
4053	0	32	
4054	0	31	
4055	0	31	
4056	0	31	
4057	0	32	
4058	0	33	
4059	0	31	
4060	0	32	
4061	0	30	
4062	0	32	
4063	0	31	
4064	0	31	
4065	0	31	
4066	0	31	
4067	0	31	
4068	0	32	
4069	0	33	
4070	0	33	
4071	0	35	
4072	0	36	
4073	0	40	
4074	0	39	
4075	0	42	
4076	0	43	
4077	0	47	
4078	0	48	
4079	0	49	
4080	0	52	
4081	0	52	
4082	0	52	
4083	0	55	
4084	0	56	
4085	0	58	
4086	0	58	
4087	0	59	
4088	0	62	
4089	0	65	
4090	0	66	
4091	0	65	
4092	0	70	
4093	0	70	
4094	0	74	
4095	0	75	
4096	0	77	
4097	0	78	
4098	0	83	
4099	0	82	
4100	0	84	
4101	0	85	
4102	0	85	
4103	0	87	
4104	0	89	
4105	0	91	
4106	0	90	
4107	0	95	
4108	0	95	
4109	0	96	
4110	0	98	
4111	0	100	
4112	0	98	
4113	0	102	
4114	0	105	
4115	0	105	
4116	0	106	
4117	0	107	
4118	0	110	
4119	0	109	
4120	0	108	
4121	0	112	
4122	0	111	
4123	0	113	
4124	0	112	
4125	0	115	
4126	0	115	
4127	0	114	
4128	0	115	
4129	0	115	
4130	0	116	
4131	0	116	
4132	0	119	
4133	0	116	
4134	0	116	
4135	0	120	
4136	0	121	
4137	0	121	
4138	0	120	
4139	0	119	
4140	0	121	
4141	0	122	
4142	0	121	
4143	0	120	
4144	0	119	
4145	0	117	
4146	0	117	
4147	0	117	
4148	0	116	
4149	0	118	
4150	0	118	
4151	0	117	
4152	0	118	
4153	0	119	
4154	0	118	
4155	0	119	
4156	0	119	
4157	0	117	
4158	0	118	
4159	0	119	
4160	0	117	
4161	0	118	
4162	0	117	
4163	0	116	
4164	0	115	
4165	0	114	
4166	0	116	
4167	0	116	
4168	0	113	
4169	0	115	
4170	0	114	
4171	0	114	
4172	0	114	
4173	0	114	
4174	0	117	
4175	0	117	
4176	0	116	
4177	0	118	
4178	0	119	
4179	0	118	
4180	0	118	
4181	0	119	
4182	0	119	
4183	0	121	
4184	0	120	
4185	0	119	
4186	0	120	
4187	0	120	
4188	0	121	
4189	0	121	
4190	0	121	
4191	0	121	
4192	0	123	
4193	0	125	
4194	0	125	
4195	0	126	
4196	0	127	
4197	0	129	
4198	0	130	
4199	0	128	
4200	0	130	
4201	0	131	
4202	0	133	
4203	0	131	
4204	0	133	
4205	0	133	
4206	0	132	
4207	0	136	
4208	0	135	
4209	0	135	
4210	0	137	
4211	0	138	
4212	0	137	
4213	0	139	
4214	0	140	
4215	0	142	
4216	0	140	
4217	0	143	
4218	0	142	
4219	0	141	
4220	0	145	
4221	0	146	
4222	0	143	
4223	0	146	
4224	0	146	
4225	0	146	
4226	0	147	
4227	0	148	
4228	0	148	
4229	0	149	
4230	0	149	
4231	0	150	
4232	0	152	
4233	0	152	
4234	0	153	
4235	0	154	
4236	0	153	
4237	0	156	
4238	0	156	
4239	0	155	
4240	0	155	
4241	0	155	
4242	0	156	
4243	0	156	
4244	0	157	
4245	0	157	
4246	0	158	
4247	0	157	
4248	0	158	
4249	0	156	
4250	0	157	
4251	0	158	
4252	0	158	
4253	0	159	
4254	0	161	
4255	0	157	
4256	0	159	
4257	0	159	
4258	0	156	
4259	0	159	
4260	0	158	
4261	0	158	
4262	0	155	
4263	0	154	
4264	0	156	
4265	0	154	
4266	0	153	
4267	0	155	
4268	0	153	
4269	0	153	
4270	0	153	
4271	0	154	
4272	0	151	
4273	0	151	
4274	0	151	
4275	0	152	
4276	0	151	
4277	0	149	
4278	0	151	
4279	0	149	
4280	0	148	
4281	0	149	
4282	0	148	
4283	0	148	
4284	0	146	
4285	0	145	
4286	0	143	
4287	0	143	
4288	0	142	
4289	0	140	
4290	0	143	
4291	0	140	
4292	0	141	
4293	0	143	
4294	0	140	
4295	0	140	
4296	0	140	
4297	0	139	
4298	0	140	
4299	0	137	
4300	0	139	
4301	0	139	
4302	0	136	
4303	0	137	
4304	0	135	
4305	0	135	
4306	0	136	
4307	0	136	
4308	0	134	
4309	0	132	
4310	0	133	
4311	0	135	
4312	0	134	
4313	0	134	
4314	0	134	
4315	0	134	
4316	0	136	
4317	0	136	
4318	0	136	
4319	0	138	
4320	0	135	
4321	0	137	
4322	0	137	
4323	0	136	
4324	0	135	
4325	0	134	
4326	0	134	
4327	0	135	
4328	0	136	
4329	0	136	
4330	0	137	
4331	0	138	
4332	0	137	
4333	0	138	
4334	0	140	
4335	0	140	
4336	0	140	
4337	0	143	
4338	0	142	
4339	0	141	
4340	0	143	
4341	0	145	
4342	0	141	
4343	0	144	
4344	0	144	
4345	0	144	
4346	0	146	
4347	0	145	
4348	0	145	
4349	0	145	
4350	0	148	
4351	0	146	
4352	0	148	
4353	0	151	
4354	0	152	
4355	0	151	
4356	0	153	
4357	0	155	
4358	0	155	
4359	0	156	
4360	0	157	
4361	0	158	
4362	0	157	
4363	0	159	
4364	0	160	
4365	0	158	
4366	0	161	
4367	0	161	
4368	0	161	
4369	0	161	
4370	0	161	
4371	0	163	
4372	0	166	
4373	0	166	
4374	0	168	
4375	0	169	
4376	0	169	
4377	0	170	
4378	0	170	
4379	0	174	
4380	0	174	
4381	0	175	
4382	0	174	
4383	0	174	
4384	0	175	
4385	0	178	
4386	0	177	
4387	0	177	
4388	0	180	
4389	0	180	
4390	0	181	
4391	0	182	
4392	0	182	
4393	0	183	
4394	0	187	
4395	0	187	
4396	0	188	
4397	0	189	
4398	0	190	
4399	0	190	
4400	0	191	
4401	0	193	
4402	0	191	
4403	0	192	
4404	0	194	
4405	0	192	
4406	0	192	
4407	0	195	
4408	0	195	
4409	0	195	
4410	0	198	
4411	0	196	
4412	0	196	
4413	0	197	
4414	0	198	
4415	0	197	
4416	0	199	
4417	0	200	
4418	0	202	
4419	0	200	
4420	0	199	
4421	0	202	
4422	0	200	
4423	0	201	
4424	0	200	
4425	0	201	
4426	0	200	
4427	0	200	
4428	0	202	
4429	0	201	
4430	0	200	
4431	0	201	
4432	0	203	
4433	0	203	
4434	0	203	
4435	0	206	
4436	0	206	
4437	0	208	
4438	0	206	
4439	0	208	
4440	0	208	
4441	0	209	
4442	0	211	
4443	0	210	
4444	0	209	
4445	0	208	
4446	0	211	
4447	0	210	
4448	0	212	
4449	0	212	
4450	0	212	
4451	0	214	
4452	0	215	
4453	0	216	
4454	0	214	
4455	0	218	
4456	0	220	
4457	0	221	
4458	0	221	
4459	0	219	
4460	0	220	
4461	0	223	
4462	0	225	
4463	0	224	
4464	0	226	
4465	0	223	
4466	0	226	
4467	0	222	
4468	0	226	
4469	0	226	
4470	0	226	
4471	0	226	
4472	0	229	
4473	0	229	
4474	0	229	
4475	0	232	
4476	0	233	
4477	0	232	
4478	0	233	
4479	0	236	
4480	0	237	
4481	0	237	
4482	0	236	
4483	0	235	
4484	0	239	
4485	0	237	
4486	0	238	
4487	0	238	
4488	0	235	
4489	0	239	
4490	0	241	
4491	0	239	
4492	0	241	
4493	0	244	
4494	0	244	
4495	0	244	
4496	0	246	
4497	0	246	
4498	0	248	
4499	0	249	
4500	0	247	
4501	0	249	
4502	0	248	
4503	0	250	
4504	0	246	
4505	0	249	
4506	0	248	
4507	0	250	
4508	0	250	
4509	0	252	
4510	0	253	
4511	0	252	
4512	0	254	
4513	0	257	
4514	0	259	
4515	0	261	
4516	0	259	
4517	0	260	
4518	0	259	
4519	0	261	
4520	0	260	
4521	0	261	
4522	0	263	
4523	0	261	
4524	0	261	
4525	0	262	
4526	0	262	
4527	0	260	
4528	0	261	
4529	0	261	
4530	0	260	
4531	0	261	
4532	0	265	
4533	0	264	
4534	0	265	
4535	0	264	
4536	0	265	
4537	0	266	
4538	0	266	
4539	0	267	
4540	0	265	
4541	0	266	
4542	0	263	
4543	0	266	
4544	0	263	
4545	0	265	
4546	0	262	
4547	0	263	
4548	0	263	
4549	0	263	
4550	0	263	
4551	0	258	
4552	0	260	
4553	0	262	
4554	0	262	
4555	0	259	
4556	0	262	
4557	0	260	
4558	0	256	
4559	0	260	
4560	0	256	
4561	0	255	
4562	0	255	
4563	0	254	
4564	0	254	
4565	0	252	
4566	0	250	
4567	0	250	
4568	0	247	
4569	0	247	
4570	0	245	
4571	0	244	
4572	0	245	
4573	0	243	
4574	0	241	
4575	0	239	
4576	0	240	
4577	0	239	
4578	0	240	
4579	0	236	
4580	0	236	
4581	0	233	
4582	0	233	
4583	0	233	
4584	0	228	
4585	0	228	
4586	0	226	
4587	0	225	
4588	0	221	
4589	0	222	
4590	0	220	
4591	0	217	
4592	0	219	
4593	0	215	
4594	0	217	
4595	0	215	
4596	0	213	
4597	0	210	
4598	0	211	
4599	0	209	
4600	0	206	
4601	0	205	
4602	0	203	
4603	0	199	
4604	0	198	
4605	0	194	
4606	0	197	
4607	0	193	
4608	0	194	
4609	0	191	
4610	0	188	
4611	0	189	
4612	0	188	
4613	0	186	
4614	0	185	
4615	0	184	
4616	0	185	
4617	0	182	
4618	0	179	
4619	0	178	
4620	0	176	
4621	0	174	
4622	0	172	
4623	0	171	
4624	0	172	
4625	0	170	
4626	0	165	
4627	0	165	
4628	0	164	
4629	0	162	
4630	0	160	
4631	0	160	
4632	0	159	
4633	0	160	
4634	0	157	
4635	0	158	
4636	0	156	
4637	0	154	
4638	0	154	
4639	0	154	
4640	0	152	
4641	0	150	
4642	0	148	
4643	0	145	
4644	0	144	
4645	0	144	
4646	0	143	
4647	0	139	
4648	0	142	
4649	0	137	
4650	0	138	
4651	0	136	
4652	0	136	
4653	0	137	
4654	0	137	
4655	0	137	
4656	0	136	
4657	0	136	
4658	0	133	
4659	0	132	
4660	0	131	
4661	0	131	
4662	0	129	
4663	0	130	
4664	0	129	
4665	0	126	
4666	0	125	
4667	0	125	
4668	0	122	
4669	0	124	
4670	0	123	
4671	0	121	
4672	0	121	
4673	0	124	
4674	0	120	
4675	0	122	
4676	0	121	
4677	0	121	
4678	0	122	
4679	0	119	
4680	0	119	
4681	0	119	
4682	0	117	
4683	0	116	
4684	0	115	
4685	0	113	
4686	0	114	
4687	0	111	
4688	0	110	
4689	0	110	
4690	0	110	
4691	0	110	
4692	0	110	
4693	0	109	
4694	0	109	
4695	0	110	
4696	0	110	
4697	0	109	
4698	0	105	
4699	0	107	
4700	0	105	
4701	0	104	
4702	0	102	
4703	0	102	
4704	0	99	
4705	0	98	
4706	0	98	
4707	0	97	
4708	0	95	
4709	0	97	
4710	0	97	
4711	0	96	
4712	0	95	
4713	0	96	
4714	0	95	
4715	0	94	
4716	0	95	
4717	0	93	
4718	0	93	
4719	0	92	
4720	0	90	
4721	0	89	
4722	0	87	
4723	0	86	
4724	0	85	
4725	0	81	
4726	0	81	
4727	0	80	
4728	0	79	
4729	0	79	
4730	0	77	
4731	0	78	
4732	0	75	
4733	0	75	
4734	0	74	
4735	0	73	
4736	0	74	
4737	0	74	
4738	0	69	
4739	0	71	
4740	0	67	
4741	0	65	
4742	0	63	
4743	0	64	
4744	0	61	
4745	0	58	
4746	0	58	
4747	0	54	
4748	0	55	
4749	0	52	
4750	0	51	
4751	0	51	
4752	0	50	
4753	0	48	
4754	0	46	
4755	0	47	
4756	0	46	
4757	0	43	
4758	0	43	
4759	0	43	
4760	0	39	
4761	0	37	
4762	0	36	
4763	0	34	
4764	0	34	
4765	0	32	
4766	0	32	
4767	0	31	
4768	0	32	
4769	0	31	
4770	0	31	
4771	0	31	
4772	0	31	
4773	0	31	
4774	0	32	
4775	0	30	
4776	0	31	
4777	0	31	
4778	0	31	
4779	0	32	
4780	0	31	
4781	0	31	
4782	0	32	
4783	0	32	
4784	0	30	
4785	0	30	
4786	0	31	
4787	0	31	
4788	0	31	
4789	0	33	
4790	0	31	
4791	0	31	
4792	0	31	
4793	0	32	
4794	0	32	
4795	0	31	
4796	0	32	
4797	0	31	
4798	0	32	
4799	0	32	
4800	0	32	
4801	0	31	
4802	0	31	
4803	0	31	
4804	0	31	
4805	0	31	
4806	0	31	
4807	0	31	
4808	0	31	
4809	0	31	
4810	0	30	
4811	0	31	
4812	0	31	
4813	0	31	
4814	0	31	
4815	0	31	
4816	0	32	
4817	0	31	
4818	0	30	
4819	0	31	
4820	0	31	
4821	0	31	
4822	0	32	
4823	0	32	
4824	0	32	
4825	0	31	
4826	0	31	
4827	0	31	
4828	0	32	
4829	0	31	
4830	0	31	
4831	0	32	
4832	0	30	
4833	0	31	
4834	0	31	
4835	0	32	
4836	0	31	
4837	0	30	
4838	0	31	
4839	0	30	
4840	0	32	
4841	0	31	
4842	0	30	
4843	0	30	
4844	0	31	
4845	0	32	
4846	0	31	
4847	0	32	
4848	0	31	
4849	0	31	
4850	0	31	
4851	0	31	
4852	0	32	
4853	0	31	
4854	0	31	
4855	0	31	
4856	0	30	
4857	0	31	
4858	0	31	
4859	0	31	
4860	0	30	
4861	0	32	
4862	0	30	
4863	0	31	
4864	0	30	
4865	0	32	
4866	0	31	
4867	0	30	
4868	0	30	
4869	0	31	
4870	0	31	
4871	0	32	
4872	0	31	
4873	0	32	
4874	0	30	
4875	0	31	
4876	0	30	
4877	0	31	
4878	0	31	
4879	0	32	
4880	0	31	
4881	0	32	
4882	0	30	
4883	0	31	
4884	0	30	
4885	0	32	
4886	0	30	
4887	0	30	
4888	0	32	
4889	0	32	
4890	0	31	
4891	0	31	
4892	0	31	
4893	0	31	
4894	0	32	
4895	0	31	
4896	0	31	
4897	0	32	
4898	0	31	
4899	0	30	
4900	0	32	
4901	0	31	
4902	0	32	
4903	0	32	
4904	0	30	
4905	0	30	
4906	0	32	
4907	0	31	
4908	0	31	
4909	0	31	
4910	0	31	
4911	0	31	
4912	0	31	
4913	0	31	
4914	0	32	
4915	0	31	
4916	0	30	
4917	0	31	
4918	0	31	
4919	0	31	
4920	0	31	
4921	0	30	
4922	0	31	
4923	0	30	
4924	0	32	
4925	0	31	
4926	0	31	
4927	0	32	
4928	0	31	
4929	0	32	
4930	0	32	
4931	0	30	
4932	0	31	
4933	0	31	
4934	0	31	
4935	0	31	
4936	0	32	
4937	0	32	
4938	0	32	
4939	0	30	
4940	0	31	
4941	0	31	
4942	0	31	
4943	0	31	
4944	0	31	
4945	0	31	
4946	0	31	
4947	0	32	
4948	0	30	
4949	0	31	
4950	0	31	
4951	0	31	
4952	0	31	
4953	0	31	
4954	0	31	
4955	0	32	
4956	0	31	
4957	0	30	
4958	0	30	
4959	0	31	
4960	0	31	
4961	0	31	
4962	0	32	
4963	0	31	
4964	0	32	
4965	0	32	
4966	0	31	
4967	0	31	
4968	0	32	
4969	0	31	
4970	0	31	
4971	0	31	
4972	0	30	
4973	0	31	
4974	0	31	
4975	0	30	
4976	0	32	
4977	0	31	
4978	0	30	
4979	0	32	
4980	0	31	
4981	0	31	
4982	0	31	
4983	0	31	
4984	0	33	
4985	0	32	
4986	0	33	
4987	0	35	
4988	0	32	
4989	0	33	
4990	0	35	
4991	0	34	
4992	0	36	
4993	0	37	
4994	0	37	
4995	0	39	
4996	0	39	
4997	0	41	
4998	0	39	
4999	0	43	
5000	0	42	
5001	0	40	
5002	0	43	
5003	0	41	
5004	0	42	
5005	0	41	
5006	0	42	
5007	0	42	
5008	0	42	
5009	0	42	
5010	0	43	
5011	0	43	
5012	0	43	
5013	0	44	
5014	0	46	
5015	0	46	
5016	0	49	
5017	0	48	
5018	0	47	
5019	0	49	
5020	0	48	
5021	0	48	
5022	0	49	
5023	0	48	
5024	0	47	
5025	0	46	
5026	0	48	
5027	0	47	
5028	0	49	
5029	0	49	
5030	0	50	
5031	0	49	
5032	0	50	
5033	0	53	
5034	0	51	
5035	0	53	
5036	0	50	
5037	0	54	
5038	0	52	
5039	0	53	
5040	0	53	
5041	0	54	
5042	0	53	
5043	0	55	
5044	0	52	
5045	0	53	
5046	0	53	
5047	0	54	
5048	0	53	
5049	0	53	
5050	0	53	
5051	0	52	
5052	0	52	
5053	0	55	
5054	0	56	
5055	0	56	
5056	0	57	
5057	0	57	
5058	0	57	
5059	0	57	
5060	0	57	
5061	0	56	
5062	0	57	
5063	0	57	
5064	0	56	
5065	0	56	
5066	0	55	
5067	0	56	
5068	0	57	
5069	0	56	
5070	0	55	
5071	0	56	
5072	0	58	
5073	0	59	
5074	0	57	
5075	0	56	
5076	0	59	
5077	0	58	
5078	0	60	
5079	0	62	
5080	0	59	
5081	0	58	
5082	0	58	
5083	0	59	
5084	0	59	
5085	0	56	
5086	0	57	
5087	0	57	
5088	0	57	
5089	0	57	
5090	0	58	
5091	0	57	
5092	0	56	
5093	0	58	
5094	0	60	
5095	0	58	
5096	0	58	
5097	0	59	
5098	0	59	
5099	0	58	
5100	0	59	
5101	0	58	
5102	0	56	
5103	0	56	
5104	0	57	
5105	0	55	
5106	0	58	
5107	0	56	
5108	0	56	
5109	0	56	
5110	0	56	
5111	0	56	
5112	0	57	
5113	0	59	
5114	0	57	
5115	0	58	
5116	0	60	
5117	0	60	
5118	0	60	
5119	0	58	
5120	0	58	
5121	0	59	
5122	0	58	
5123	0	59	
5124	0	58	
5125	0	58	
5126	0	58	
5127	0	58	
5128	0	59	
5129	0	59	
5130	0	57	
5131	0	57	
5132	0	60	
5133	0	59	
5134	0	59	
5135	0	61	
5136	0	61	
5137	0	62	
5138	0	62	
5139	0	62	
5140	0	64	
5141	0	64	
5142	0	62	
5143	0	63	
5144	0	64	
5145	0	63	
5146	0	63	
5147	0	64	
5148	0	65	
5149	0	66	
5150	0	66	
5151	0	67	
5152	0	68	
5153	0	69	
5154	0	70	
5155	0	69	
5156	0	74	
5157	0	74	
5158	0	73	
5159	0	76	
5160	0	75	
5161	0	77	
5162	0	76	
5163	0	77	
5164	0	77	
5165	0	78	
5166	0	79	
5167	0	79	
5168	0	80	
5169	0	82	
5170	0	80	
5171	0	83	
5172	0	84	
5173	0	86	
5174	0	86	
5175	0	89	
5176	0	89	
5177	0	90	
5178	0	91	
5179	0	91	
5180	0	94	
5181	0	95	
5182	0	94	
5183	0	93	
5184	0	96	
5185	0	96	
5186	0	96	
5187	0	98	
5188	0	97	
5189	0	98	
5190	0	102	
5191	0	100	
5192	0	103	
5193	0	105	
5194	0	104	
5195	0	104	
5196	0	107	
5197	0	109	
5198	0	110	
5199	0	110	
5200	0	113	
5201	0	112	
5202	0	114	
5203	0	114	
5204	0	114	
5205	0	115	
5206	0	117	
5207	0	119	
5208	0	120	
5209	0	119	
5210	0	120	
5211	0	120	
5212	0	120	
5213	0	124	
5214	0	125	
5215	0	124	
5216	0	127	
5217	0	128	
5218	0	129	
5219	0	131	
5220	0	129	
5221	0	130	
5222	0	130	
5223	0	129	
5224	0	130	
5225	0	131	
5226	0	131	
5227	0	130	
5228	0	133	
5229	0	131	
5230	0	132	
5231	0	134	
5232	0	134	
5233	0	136	
5234	0	137	
5235	0	138	
5236	0	139	
5237	0	140	
5238	0	139	
5239	0	140	
5240	0	140	
5241	0	139	
5242	0	142	
5243	0	139	
5244	0	139	
5245	0	139	
5246	0	140	
5247	0	139	
5248	0	141	
5249	0	142	
5250	0	144	
5251	0	141	
5252	0	143	
5253	0	144	
5254	0	143	
5255	0	145	
5256	0	144	
5257	0	146	
5258	0	145	
5259	0	144	
5260	0	146	
5261	0	144	
5262	0	143	
5263	0	145	
5264	0	145	
5265	0	142	
5266	0	146	
5267	0	144	
5268	0	145	
5269	0	143	
5270	0	144	
5271	0	144	
5272	0	146	
5273	0	147	
5274	0	146	
5275	0	145	
5276	0	146	
5277	0	145	
5278	0	147	
5279	0	145	
5280	0	148	
5281	0	146	
5282	0	146	
5283	0	146	
5284	0	144	
5285	0	143	
5286	0	146	
5287	0	144	
5288	0	143	
5289	0	144	
5290	0	142	
5291	0	144	
5292	0	144	
5293	0	144	
5294	0	144	
5295	0	145	
5296	0	146	
5297	0	144	
5298	0	144	
5299	0	143	
5300	0	144	
5301	0	144	
5302	0	144	
5303	0	143	
5304	0	142	
5305	0	141	
5306	0	140	
5307	0	140	
5308	0	142	
5309	0	143	
5310	0	139	
5311	0	142	
5312	0	139	
5313	0	140	
5314	0	139	
5315	0	140	
5316	0	141	
5317	0	142	
5318	0	140	
5319	0	140	
5320	0	139	
5321	0	139	
5322	0	138	
5323	0	136	
5324	0	135	
5325	0	138	
5326	0	138	
5327	0	137	
5328	0	136	
5329	0	134	
5330	0	136	
5331	0	134	
5332	0	135	
5333	0	135	
5334	0	136	
5335	0	139	
5336	0	138	
5337	0	135	
5338	0	137	
5339	0	136	
5340	0	136	
5341	0	135	
5342	0	135	
5343	0	135	
5344	0	135	
5345	0	134	
5346	0	134	
5347	0	133	
5348	0	133	
5349	0	134	
5350	0	133	
5351	0	132	
5352	0	133	
5353	0	135	
5354	0	136	
5355	0	135	
5356	0	137	
5357	0	135	
5358	0	137	
5359	0	137	
5360	0	138	
5361	0	134	
5362	0	134	
5363	0	134	
5364	0	134	
5365	0	134	
5366	0	134	
5367	0	135	
5368	0	134	
5369	0	134	
5370	0	135	
5371	0	135	
5372	0	134	
5373	0	138	
5374	0	137	
5375	0	135	
5376	0	137	
5377	0	137	
5378	0	139	
5379	0	136	
5380	0	136	
5381	0	137	
5382	0	137	
5383	0	137	
5384	0	136	
5385	0	134	
5386	0	136	
5387	0	137	
5388	0	134	
5389	0	138	
5390	0	136	
5391	0	138	
5392	0	137	
5393	0	139	
5394	0	139	
5395	0	140	
5396	0	140	
5397	0	138	
5398	0	141	
5399	0	143	
5400	0	140	
5401	0	142	
5402	0	141	
5403	0	141	
5404	0	141	
5405	0	143	
5406	0	141	
5407	0	140	
5408	0	139	
5409	0	143	
5410	0	142	
5411	0	143	
5412	0	143	
5413	0	145	
5414	0	144	
5415	0	146	
5416	0	147	
5417	0	145	
5418	0	148	
5419	0	148	
5420	0	146	
5421	0	147	
5422	0	146	
5423	0	145	
5424	0	146	
5425	0	145	
5426	0	149	
5427	0	145	
5428	0	146	
5429	0	146	
5430	0	149	
5431	0	150	
5432	0	151	
5433	0	150	
5434	0	151	
5435	0	152	
5436	0	153	
5437	0	155	
5438	0	154	
5439	0	154	
5440	0	155	
5441	0	155	
5442	0	155	
5443	0	158	
5444	0	155	
5445	0	155	
5446	0	158	
5447	0	158	
5448	0	157	
5449	0	158	
5450	0	159	
5451	0	161	
5452	0	161	
5453	0	162	
5454	0	162	
5455	0	162	
5456	0	164	
5457	0	164	
5458	0	164	
5459	0	166	
5460	0	164	
5461	0	167	
5462	0	167	
5463	0	168	
5464	0	168	
5465	0	168	
5466	0	168	
5467	0	168	
5468	0	169	
5469	0	171	
5470	0	171	
5471	0	170	
5472	0	172	
5473	0	174	
5474	0	174	
5475	0	178	
5476	0	180	
5477	0	179	
5478	0	180	
5479	0	183	
5480	0	184	
5481	0	183	
5482	0	181	
5483	0	182	
5484	0	184	
5485	0	184	
5486	0	187	
5487	0	186	
5488	0	188	
5489	0	190	
5490	0	188	
5491	0	191	
5492	0	193	
5493	0	191	
5494	0	193	
5495	0	195	
5496	0	197	
5497	0	197	
5498	0	199	
5499	0	197	
5500	0	199	
5501	0	201	
5502	0	202	
5503	0	202	
5504	0	202	
5505	0	203	
5506	0	202	
5507	0	202	
5508	0	203	
5509	0	206	
5510	0	206	
5511	0	206	
5512	0	209	
5513	0	208	
5514	0	209	
5515	0	212	
5516	0	212	
5517	0	211	
5518	0	212	
5519	0	214	
5520	0	215	
5521	0	216	
5522	0	214	
5523	0	215	
5524	0	214	
5525	0	216	
5526	0	217	
5527	0	216	
5528	0	216	
5529	0	216	
5530	0	219	
5531	0	218	
5532	0	220	
5533	0	220	
5534	0	220	
5535	0	220	
5536	0	220	
5537	0	223	
5538	0	221	
5539	0	222	
5540	0	222	
5541	0	222	
5542	0	222	
5543	0	222	
5544	0	222	
5545	0	222	
5546	0	222	
5547	0	222	
5548	0	220	
5549	0	219	
5550	0	220	
5551	0	221	
5552	0	221	
5553	0	222	
5554	0	221	
5555	0	221	
5556	0	221	
5557	0	222	
5558	0	223	
5559	0	221	
5560	0	220	
5561	0	219	
5562	0	220	
5563	0	219	
5564	0	218	
5565	0	217	
5566	0	217	
5567	0	215	
5568	0	215	
5569	0	216	
5570	0	213	
5571	0	213	
5572	0	214	
5573	0	215	
5574	0	214	
5575	0	214	
5576	0	213	
5577	0	213	
5578	0	213	
5579	0	210	
5580	0	208	
5581	0	210	
5582	0	209	
5583	0	209	
5584	0	205	
5585	0	205	
5586	0	203	
5587	0	203	
5588	0	202	
5589	0	199	
5590	0	198	
5591	0	199	
5592	0	198	
5593	0	197	
5594	0	198	
5595	0	197	
5596	0	193	
5597	0	195	
5598	0	194	
5599	0	194	
5600	0	193	
5601	0	192	
5602	0	190	
5603	0	184	
5604	0	186	
5605	0	187	
5606	0	184	
5607	0	183	
5608	0	183	
5609	0	182	
5610	0	179	
5611	0	178	
5612	0	177	
5613	0	179	
5614	0	177	
5615	0	176	
5616	0	174	
5617	0	174	
5618	0	173	
5619	0	171	
5620	0	170	
5621	0	167	
5622	0	169	
5623	0	167	
5624	0	165	
5625	0	163	
5626	0	161	
5627	0	160	
5628	0	158	
5629	0	157	
5630	0	158	
5631	0	156	
5632	0	154	
5633	0	155	
5634	0	154	
5635	0	153	
5636	0	152	
5637	0	151	
5638	0	150	
5639	0	149	
5640	0	149	
5641	0	147	
5642	0	146	
5643	0	144	
5644	0	143	
5645	0	140	
5646	0	140	
5647	0	138	
5648	0	135	
5649	0	136	
5650	0	136	
5651	0	136	
5652	0	132	
5653	0	134	
5654	0	132	
5655	0	132	
5656	0	129	
5657	0	131	
5658	0	129	
5659	0	129	
5660	0	127	
5661	0	126	
5662	0	124	
5663	0	123	
5664	0	122	
5665	0	121	
5666	0	122	
5667	0	120	
5668	0	118	
5669	0	116	
5670	0	117	
5671	0	115	
5672	0	115	
5673	0	115	
5674	0	117	
5675	0	118	
5676	0	114	
5677	0	112	
5678	0	116	
5679	0	113	
5680	0	113	
5681	0	110	
5682	0	110	
5683	0	108	
5684	0	107	
5685	0	109	
5686	0	103	
5687	0	104	
5688	0	103	
5689	0	102	
5690	0	102	
5691	0	103	
5692	0	103	
5693	0	102	
5694	0	102	
5695	0	101	
5696	0	102	
5697	0	101	
5698	0	101	
5699	0	101	
5700	0	100	
5701	0	98	
5702	0	98	
5703	0	96	
5704	0	98	
5705	0	96	
5706	0	95	
5707	0	95	
5708	0	93	
5709	0	93	
5710	0	92	
5711	0	93	
5712	0	94	
5713	0	93	
5714	0	94	
5715	0	92	
5716	0	95	
5717	0	93	
5718	0	92	
5719	0	91	
5720	0	90	
5721	0	92	
5722	0	91	
5723	0	89	
5724	0	88	
5725	0	88	
5726	0	88	
5727	0	89	
5728	0	87	
5729	0	88	
5730	0	88	
5731	0	89	
5732	0	90	
5733	0	90	
5734	0	89	
5735	0	91	
5736	0	91	
5737	0	92	
5738	0	89	
5739	0	90	
5740	0	90	
5741	0	88	
5742	0	86	
5743	0	86	
5744	0	86	
5745	0	85	
5746	0	85	
5747	0	84	
5748	0	82	
5749	0	81	
5750	0	81	
5751	0	82	
5752	0	82	
5753	0	83	
5754	0	83	
5755	0	82	
5756	0	83	
5757	0	83	
5758	0	80	
5759	0	80	
5760	0	78	
5761	0	81	
5762	0	78	
5763	0	77	
5764	0	75	
5765	0	75	
5766	0	74	
5767	0	72	
5768	0	72	
5769	0	73	
5770	0	72	
5771	0	74	
5772	0	73	
5773	0	73	
5774	0	73	
5775	0	72	
5776	0	72	
5777	0	74	
5778	0	72	
5779	0	71	
5780	0	71	
5781	0	69	
5782	0	67	
5783	0	68	
5784	0	68	
5785	0	66	
5786	0	66	
5787	0	67	
5788	0	65	
5789	0	64	
5790	0	66	
5791	0	63	
5792	0	66	
5793	0	64	
5794	0	64	
5795	0	65	
5796	0	63	
5797	0	63	
5798	0	62	
5799	0	61	
5800	0	63	
5801	0	61	
5802	0	61	
5803	0	57	
5804	0	58	
5805	0	57	
5806	0	55	
5807	0	54	
5808	0	52	
5809	0	53	
5810	0	53	
5811	0	53	
5812	0	53	
5813	0	54	
5814	0	54	
5815	0	53	
5816	0	51	
5817	0	54	
5818	0	51	
5819	0	50	
5820	0	51	
5821	0	49	
5822	0	47	
5823	0	47	
5824	0	45	
5825	0	44	
5826	0	44	
5827	0	42	
5828	0	44	
5829	0	41	
5830	0	41	
5831	0	41	
5832	0	40	
5833	0	41	
5834	0	40	
5835	0	40	
5836	0	39	
5837	0	40	
5838	0	39	
5839	0	37	
5840	0	38	
5841	0	36	
5842	0	34	
5843	0	34	
5844	0	33	
5845	0	33	
5846	0	32	
5847	0	31	
5848	0	31	
5849	0	31	
5850	0	31	
5851	0	31	
5852	0	31	
5853	0	31	
5854	0	31	
5855	0	31	
5856	0	31	
5857	0	31	
5858	0	32	
5859	0	32	
5860	0	32	
5861	0	31	
5862	0	32	
5863	0	31	
5864	0	31	
5865	0	32	
5866	0	32	
5867	0	32	
5868	0	32	
5869	0	31	
5870	0	31	
5871	0	32	
5872	0	30	
5873	0	32	
5874	0	32	
5875	0	30	
5876	0	31	
5877	0	31	
5878	0	31	
5879	0	31	
5880	0	30	
5881	0	32	
5882	0	31	
5883	0	31	
5884	0	31	
5885	0	31	
5886	0	31	
5887	0	31	
5888	0	30	
5889	0	31	
5890	0	31	
5891	0	31	
5892	0	31	
5893	0	30	
5894	0	30	
5895	0	30	
5896	0	30	
5897	0	31	
5898	0	31	
5899	0	31	
5900	0	30	
5901	0	31	
5902	0	31	
5903	0	32	
5904	0	32	
5905	0	32	
5906	0	31	
5907	0	32	
5908	0	31	
5909	0	31	
5910	0	32	
5911	0	31	
5912	0	31	
5913	0	31	
5914	0	31	
5915	0	31	
5916	0	32	
5917	0	31	
5918	0	32	
5919	0	32	
5920	0	30	
5921	0	31	
5922	0	32	
5923	0	31	
5924	0	32	
5925	0	31	
5926	0	31	
5927	0	32	
5928	0	31	
5929	0	31	
5930	0	30	
5931	0	31	
5932	0	31	
5933	0	31	
5934	0	31	
5935	0	31	
5936	0	31	
5937	0	30	
5938	0	32	
5939	0	31	
5940	0	32	
5941	0	32	
5942	0	31	
5943	0	31	
5944	0	32	
5945	0	31	
5946	0	32	
5947	0	30	
5948	0	32	
5949	0	31	
5950	0	31	
5951	0	31	
5952	0	30	
5953	0	31	
5954	0	31	
5955	0	31	
5956	0	32	
5957	0	31	
5958	0	30	
5959	0	31	
5960	0	31	
5961	0	30	
5962	0	32	
5963	0	32	
5964	0	31	
5965	0	30	
5966	0	31	
5967	0	32	
5968	0	30	
5969	0	30	
5970	0	30	
5971	0	30	
5972	0	31	
5973	0	31	
5974	0	31	
5975	0	32	
5976	0	31	
5977	0	32	
5978	0	31	
5979	0	32	
5980	0	30	
5981	0	32	
5982	0	32	
5983	0	32	
5984	0	31	
5985	0	30	
5986	0	31	
5987	0	30	
5988	0	32	
5989	0	31	
5990	0	31	
5991	0	31	
5992	0	30	
5993	0	31	
5994	0	30	
5995	0	30	
5996	0	31	
5997	0	31	
5998	0	31	
5999	0	31	
6000	0	31	
6001	0	32	
6002	0	31	
6003	0	31	
6004	0	30	
6005	0	31	
6006	0	31	
6007	0	31	
6008	0	31	
6009	0	31	
6010	0	32	
6011	0	31	
6012	0	31	
6013	0	31	
6014	0	32	
6015	0	31	
6016	0	31	
6017	0	31	
6018	0	32	
6019	0	31	
6020	0	30	
6021	0	30	
6022	0	31	
6023	0	31	
6024	0	31	
6025	0	31	
6026	0	31	
6027	0	31	
6028	0	31	
6029	0	30	
6030	0	32	
6031	0	32	
6032	0	32	
6033	0	31	
6034	0	32	
6035	0	34	
6036	0	35	
6037	0	33	
6038	0	34	
6039	0	34	
6040	0	36	
6041	0	34	
6042	0	35	
6043	0	36	
6044	0	35	
6045	0	36	
6046	0	36	
6047	0	35	
6048	0	38	
6049	0	39	
6050	0	41	
6051	0	40	
6052	0	40	
6053	0	43	
6054	0	43	
6055	0	44	
6056	0	45	
6057	0	46	
6058	0	46	
6059	0	45	
6060	0	47	
6061	0	47	
6062	0	47	
6063	0	46	
6064	0	48	
6065	0	48	
6066	0	48	
6067	0	47	
6068	0	47	
6069	0	50	
6070	0	48	
6071	0	51	
6072	0	51	
6073	0	53	
6074	0	53	
6075	0	54	
6076	0	53	
6077	0	56	
6078	0	56	
6079	0	56	
6080	0	55	
6081	0	56	
6082	0	57	
6083	0	57	
6084	0	57	
6085	0	56	
6086	0	56	
6087	0	58	
6088	0	58	
6089	0	57	
6090	0	58	
6091	0	60	
6092	0	60	
6093	0	62	
6094	0	62	
6095	0	62	
6096	0	63	
6097	0	61	
6098	0	64	
6099	0	64	
6100	0	64	
6101	0	63	
6102	0	64	
6103	0	63	
6104	0	63	
6105	0	63	
6106	0	63	
6107	0	64	
6108	0	62	
6109	0	64	
6110	0	62	
6111	0	63	
6112	0	64	
6113	0	65	
6114	0	63	
6115	0	65	
6116	0	64	
6117	0	65	
6118	0	65	
6119	0	64	
6120	0	66	
6121	0	64	
6122	0	63	
6123	0	63	
6124	0	62	
6125	0	64	
6126	0	64	
6127	0	65	
6128	0	63	
6129	0	63	
6130	0	64	
6131	0	63	
6132	0	65	
6133	0	66	
6134	0	65	
6135	0	65	
6136	0	67	
6137	0	66	
6138	0	67	
6139	0	64	
6140	0	66	
6141	0	65	
6142	0	65	
6143	0	65	
6144	0	65	
6145	0	64	
6146	0	64	
6147	0	64	
6148	0	65	
6149	0	64	
6150	0	65	
6151	0	65	
6152	0	66	
6153	0	65	
6154	0	66	
6155	0	66	
6156	0	65	
6157	0	66	
6158	0	66	
6159	0	65	
6160	0	65	
6161	0	65	
6162	0	65	
6163	0	65	
6164	0	64	
6165	0	66	
6166	0	66	
6167	0	65	
6168	0	64	
6169	0	67	
6170	0	66	
6171	0	66	
6172	0	65	
6173	0	69	
6174	0	68	
6175	0	68	
6176	0	69	
6177	0	69	
6178	0	70	
6179	0	69	
6180	0	70	
6181	0	69	
6182	0	70	
6183	0	71	
6184	0	70	
6185	0	71	
6186	0	70	
6187	0	71	
6188	0	73	
6189	0	72	
6190	0	74	
6191	0	76	
6192	0	75	
6193	0	76	
6194	0	77	
6195	0	78	
6196	0	79	
6197	0	80	
6198	0	80	
6199	0	82	
6200	0	80	
6201	0	81	
6202	0	83	
6203	0	82	
6204	0	83	
6205	0	82	
6206	0	85	
6207	0	88	
6208	0	85	
6209	0	88	
6210	0	88	
6211	0	88	
6212	0	89	
6213	0	92	
6214	0	93	
6215	0	93	
6216	0	94	
6217	0	95	
6218	0	97	
6219	0	96	
6220	0	96	
6221	0	96	
6222	0	98	
6223	0	97	
6224	0	96	
6225	0	97	
6226	0	98	
6227	0	98	
6228	0	98	
6229	0	100	
6230	0	100	
6231	0	100	
6232	0	102	
6233	0	102	
6234	0	104	
6235	0	107	
6236	0	106	
6237	0	108	
6238	0	109	
6239	0	109	
6240	0	110	
6241	0	110	
6242	0	111	
6243	0	111	
6244	0	111	
6245	0	113	
6246	0	113	
6247	0	111	
6248	0	112	
6249	0	114	
6250	0	114	
6251	0	118	
6252	0	117	
6253	0	118	
6254	0	118	
6255	0	119	
6256	0	118	
6257	0	119	
6258	0	120	
6259	0	120	
6260	0	119	
6261	0	120	
6262	0	121	
6263	0	119	
6264	0	120	
6265	0	118	
6266	0	120	
6267	0	119	
6268	0	120	
6269	0	121	
6270	0	121	
6271	0	122	
6272	0	123	
6273	0	122	
6274	0	122	
6275	0	123	
6276	0	122	
6277	0	124	
6278	0	123	
6279	0	123	
6280	0	122	
6281	0	122	
6282	0	125	
6283	0	121	
6284	0	123	
6285	0	123	
6286	0	122	
6287	0	122	
6288	0	123	
6289	0	122	
6290	0	123	
6291	0	122	
6292	0	124	
6293	0	122	
6294	0	125	
6295	0	124	
6296	0	123	
6297	0	125	
6298	0	125	
6299	0	125	
6300	0	123	
6301	0	126	
6302	0	123	
6303	0	123	
6304	0	123	
6305	0	125	
6306	0	121	
6307	0	124	
6308	0	125	
6309	0	122	
6310	0	124	
6311	0	124	
6312	0	125	
6313	0	125	
6314	0	125	
6315	0	123	
6316	0	125	
6317	0	126	
6318	0	126	
6319	0	127	
6320	0	124	
6321	0	125	
6322	0	125	
6323	0	123	
6324	0	123	
6325	0	122	
6326	0	123	
6327	0	124	
6328	0	123	
6329	0	122	
6330	0	122	
6331	0	123	
6332	0	125	
6333	0	126	
6334	0	124	
6335	0	123	
6336	0	124	
6337	0	123	
6338	0	124	
6339	0	125	
6340	0	125	
6341	0	123	
6342	0	123	
6343	0	125	
6344	0	122	
6345	0	122	
6346	0	121	
6347	0	122	
6348	0	122	
6349	0	122	
6350	0	121	
6351	0	120	
6352	0	121	
6353	0	122	
6354	0	124	
6355	0	125	
6356	0	122	
6357	0	121	
6358	0	122	
6359	0	122	
6360	0	121	
6361	0	121	
6362	0	121	
6363	0	121	
6364	0	120	
6365	0	118	
6366	0	119	
6367	0	121	
6368	0	121	
6369	0	120	
6370	0	121	
6371	0	121	
6372	0	121	
6373	0	122	
6374	0	125	
6375	0	122	
6376	0	123	
6377	0	123	
6378	0	124	
6379	0	123	
6380	0	123	
6381	0	121	
6382	0	123	
6383	0	123	
6384	0	121	
6385	0	123	
6386	0	120	
6387	0	123	
6388	0	123	
6389	0	122	
6390	0	123	
6391	0	125	
6392	0	124	
6393	0	123	
6394	0	126	
6395	0	128	
6396	0	128	
6397	0	127	
6398	0	129	
6399	0	128	
6400	0	128	
6401	0	129	
6402	0	128	
6403	0	129	
6404	0	129	
6405	0	129	
6406	0	128	
6407	0	127	
6408	0	127	
6409	0	129	
6410	0	129	
6411	0	130	
6412	0	129	
6413	0	130	
6414	0	130	
6415	0	132	
6416	0	130	
6417	0	131	
6418	0	130	
6419	0	131	
6420	0	130	
6421	0	131	
6422	0	130	
6423	0	130	
6424	0	130	
6425	0	130	
6426	0	130	
6427	0	130	
6428	0	130	
6429	0	130	
6430	0	130	
6431	0	131	
6432	0	132	
6433	0	133	
6434	0	132	
6435	0	133	
6436	0	136	
6437	0	133	
6438	0	134	
6439	0	134	
6440	0	134	
6441	0	134	
6442	0	134	
6443	0	136	
6444	0	136	
6445	0	133	
6446	0	137	
6447	0	135	
6448	0	137	
6449	0	136	
6450	0	138	
6451	0	140	
6452	0	140	
6453	0	139	
6454	0	141	
6455	0	140	
6456	0	142	
6457	0	143	
6458	0	142	
6459	0	142	
6460	0	143	
6461	0	143	
6462	0	144	
6463	0	142	
6464	0	143	
6465	0	142	
6466	0	144	
6467	0	145	
6468	0	146	
6469	0	145	
6470	0	147	
6471	0	148	
6472	0	150	
6473	0	148	
6474	0	148	
6475	0	149	
6476	0	150	
6477	0	151	
6478	0	152	
6479	0	152	
6480	0	153	
6481	0	152	
6482	0	155	
6483	0	153	
6484	0	153	
6485	0	152	
6486	0	156	
6487	0	155	
6488	0	156	
6489	0	155	
6490	0	156	
6491	0	159	
6492	0	159	
6493	0	157	
6494	0	161	
6495	0	161	
6496	0	161	
6497	0	161	
6498	0	162	
6499	0	161	
6500	0	162	
6501	0	163	
6502	0	161	
6503	0	163	
6504	0	165	
6505	0	162	
6506	0	162	
6507	0	163	
6508	0	163	
6509	0	163	
6510	0	164	
6511	0	166	
6512	0	167	
6513	0	165	
6514	0	167	
6515	0	168	
6516	0	169	
6517	0	168	
6518	0	171	
6519	0	169	
6520	0	170	
6521	0	170	
6522	0	171	
6523	0	171	
6524	0	169	
6525	0	172	
6526	0	172	
6527	0	172	
6528	0	173	
6529	0	175	
6530	0	174	
6531	0	174	
6532	0	176	
6533	0	175	
6534	0	179	
6535	0	179	
6536	0	177	
6537	0	177	
6538	0	179	
6539	0	178	
6540	0	180	
6541	0	177	
6542	0	182	
6543	0	178	
6544	0	180	
6545	0	179	
6546	0	180	
6547	0	180	
6548	0	180	
6549	0	181	
6550	0	181	
6551	0	181	
6552	0	183	
6553	0	182	
6554	0	182	
6555	0	182	
6556	0	184	
6557	0	184	
6558	0	185	
6559	0	186	
6560	0	183	
6561	0	182	
6562	0	180	
6563	0	182	
6564	0	180	
6565	0	183	
6566	0	183	
6567	0	180	
6568	0	183	
6569	0	181	
6570	0	180	
6571	0	181	
6572	0	182	
6573	0	182	
6574	0	183	
6575	0	184	
6576	0	183	
6577	0	181	
6578	0	182	
6579	0	184	
6580	0	182	
6581	0	179	
6582	0	183	
6583	0	180	
6584	0	181	
6585	0	180	
6586	0	178	
6587	0	176	
6588	0	178	
6589	0	177	
6590	0	178	
6591	0	178	
6592	0	179	
6593	0	179	
6594	0	179	
6595	0	180	
6596	0	179	
6597	0	179	
6598	0	179	
6599	0	178	
6600	0	177	
6601	0	176	
6602	0	176	
6603	0	174	
6604	0	176	
6605	0	174	
6606	0	174	
6607	0	173	
6608	0	174	
6609	0	172	
6610	0	172	
6611	0	173	
6612	0	171	
6613	0	174	
6614	0	173	
6615	0	172	
6616	0	173	
6617	0	170	
6618	0	172	
6619	0	169	
6620	0	171	
6621	0	168	
6622	0	167	
6623	0	167	
6624	0	166	
6625	0	166	
6626	0	164	
6627	0	166	
6628	0	164	
6629	0	164	
6630	0	162	
6631	0	164	
6632	0	163	
6633	0	162	
6634	0	162	
6635	0	162	
6636	0	162	
6637	0	164	
6638	0	162	
6639	0	162	
6640	0	162	
6641	0	158	
6642	0	155	
6643	0	156	
6644	0	156	
6645	0	156	
6646	0	154	
6647	0	153	
6648	0	155	
6649	0	153	
6650	0	153	
6651	0	155	
6652	0	151	
6653	0	151	
6654	0	150	
6655	0	152	
6656	0	150	
6657	0	148	
6658	0	148	
6659	0	146	
6660	0	147	
6661	0	147	
6662	0	145	
6663	0	143	
6664	0	142	
6665	0	142	
6666	0	140	
6667	0	139	
6668	0	140	
6669	0	138	
6670	0	139	
6671	0	138	
6672	0	137	
6673	0	138	
6674	0	137	
6675	0	135	
6676	0	138	
6677	0	137	
6678	0	135	
6679	0	134	
6680	0	133	
6681	0	130	
6682	0	130	
6683	0	129	
6684	0	128	
6685	0	128	
6686	0	128	
6687	0	125	
6688	0	126	
6689	0	125	
6690	0	125	
6691	0	124	
6692	0	124	
6693	0	124	
6694	0	124	
6695	0	124	
6696	0	122	
6697	0	121	
6698	0	121	
6699	0	122	
6700	0	122	
6701	0	118	
6702	0	116	
6703	0	117	
6704	0	114	
6705	0	114	
6706	0	113	
6707	0	114	
6708	0	113	
6709	0	115	
6710	0	113	
6711	0	113	
6712	0	110	
6713	0	113	
6714	0	113	
6715	0	111	
6716	0	112	
6717	0	112	
6718	0	111	
6719	0	108	
6720	0	111	
6721	0	109	
6722	0	106	
6723	0	108	
6724	0	106	
6725	0	105	
6726	0	104	
6727	0	103	
6728	0	103	
6729	0	104	
6730	0	103	
6731	0	105	
6732	0	102	
6733	0	104	
6734	0	104	
6735	0	103	
6736	0	104	
6737	0	103	
6738	0	105	
6739	0	103	
6740	0	100	
6741	0	100	
6742	0	97	
6743	0	99	
6744	0	99	
6745	0	97	
6746	0	97	
6747	0	98	
6748	0	97	
6749	0	98	
6750	0	96	
6751	0	98	
6752	0	98	
6753	0	98	
6754	0	99	
6755	0	97	
6756	0	98	
6757	0	97	
6758	0	98	
6759	0	96	
6760	0	96	
6761	0	94	
6762	0	93	
6763	0	94	
6764	0	92	
6765	0	91	
6766	0	91	
6767	0	90	
6768	0	93	
6769	0	92	
6770	0	92	
6771	0	90	
6772	0	91	
6773	0	93	
6774	0	91	
6775	0	94	
6776	0	93	
6777	0	93	
6778	0	92	
6779	0	91	
6780	0	89	
6781	0	89	
6782	0	88	
6783	0	90	
6784	0	89	
6785	0	86	
6786	0	88	
6787	0	87	
6788	0	87	
6789	0	85	
6790	0	84	
6791	0	87	
6792	0	89	
6793	0	86	
6794	0	88	
6795	0	88	
6796	0	88	
6797	0	86	
6798	0	86	
6799	0	85	
6800	0	85	
6801	0	84	
6802	0	84	
6803	0	83	
6804	0	82	
6805	0	80	
6806	0	80	
6807	0	80	
6808	0	79	
6809	0	83	
6810	0	82	
6811	0	81	
6812	0	80	
6813	0	81	
6814	0	82	
6815	0	80	
6816	0	78	
6817	0	80	
6818	0	78	
6819	0	78	
6820	0	77	
6821	0	78	
6822	0	79	
6823	0	76	
6824	0	75	
6825	0	75	
6826	0	74	
6827	0	73	
6828	0	73	
6829	0	74	
6830	0	73	
6831	0	74	
6832	0	75	
6833	0	75	
6834	0	76	
6835	0	75	
6836	0	74	
6837	0	76	
6838	0	75	
6839	0	74	
6840	0	74	
6841	0	74	
6842	0	72	
6843	0	72	
6844	0	69	
6845	0	69	
6846	0	68	
6847	0	68	
6848	0	68	
6849	0	67	
6850	0	66	
6851	0	68	
6852	0	66	
6853	0	67	
6854	0	68	
6855	0	67	
6856	0	66	
6857	0	67	
6858	0	65	
6859	0	65	
6860	0	65	
6861	0	63	
6862	0	62	
6863	0	61	
6864	0	61	
6865	0	59	
6866	0	60	
6867	0	59	
6868	0	57	
6869	0	57	
6870	0	57	
6871	0	58	
6872	0	58	
6873	0	58	
6874	0	58	
6875	0	58	
6876	0	57	
6877	0	56	
6878	0	55	
6879	0	55	
6880	0	54	
6881	0	54	
6882	0	51	
6883	0	53	
6884	0	52	
6885	0	49	
6886	0	50	
6887	0	48	
6888	0	49	
6889	0	47	
6890	0	48	
6891	0	49	
6892	0	48	
6893	0	47	
6894	0	49	
6895	0	48	
6896	0	47	
6897	0	46	
6898	0	47	
6899	0	45	
6900	0	46	
6901	0	44	
6902	0	45	
6903	0	42	
6904	0	41	
6905	0	40	
6906	0	40	
6907	0	39	
6908	0	38	
6909	0	39	
6910	0	39	
6911	0	39	
6912	0	40	
6913	0	40	
6914	0	40	
6915	0	39	
6916	0	39	
6917	0	38	
6918	0	38	
6919	0	38	
6920	0	36	
6921	0	34	
6922	0	35	
6923	0	34	
6924	0	33	
6925	0	33	
6926	0	31	
6927	0	32	
6928	0	32	
6929	0	32	
6930	0	32	
6931	0	32	
6932	0	32	
6933	0	32	
6934	0	33	
6935	0	31	
6936	0	31	
6937	0	32	
6938	0	30	
6939	0	32	
6940	0	31	
6941	0	30	
6942	0	31	
6943	0	31	
6944	0	30	
6945	0	30	
6946	0	31	
6947	0	32	
6948	0	31	
6949	0	31	
6950	0	31	
6951	0	31	
6952	0	31	
6953	0	32	
6954	0	31	
6955	0	30	
6956	0	31	
6957	0	31	
6958	0	31	
6959	0	31	
6960	0	31	
6961	0	31	
6962	0	32	
6963	0	31	
6964	0	31	
6965	0	29	
6966	0	32	
6967	0	31	
6968	0	31	
6969	0	31	
6970	0	31	
6971	0	30	
6972	0	31	
6973	0	32	
6974	0	30	
6975	0	30	
6976	0	31	
6977	0	31	
6978	0	32	
6979	0	31	
6980	0	31	
6981	0	31	
6982	0	32	
6983	0	30	
6984	0	31	
6985	0	31	
6986	0	31	
6987	0	32	
6988	0	31	
6989	0	30	
6990	0	32	
6991	0	32	
6992	0	31	
6993	0	32	
6994	0	31	
6995	0	30	
6996	0	31	
6997	0	31	
6998	0	31	
6999	0	30	
7000	0	31	
7001	0	31	
7002	0	31	
7003	0	31	
7004	0	31	
7005	0	32	
7006	0	31	
7007	0	31	
7008	0	31	
7009	0	32	
7010	0	31	
7011	0	30	
7012	0	31	
7013	0	30	
7014	0	32	
7015	0	31	
7016	0	31	
7017	0	31	
7018	0	31	
7019	0	30	
7020	0	31	
7021	0	31	
7022	0	31	
7023	0	32	
7024	0	31	
7025	0	31	
7026	0	31	
7027	0	31	
7028	0	31	
7029	0	30	
7030	0	31	
7031	0	31	
7032	0	31	
7033	0	31	
7034	0	31	
7035	0	30	
7036	0	32	
7037	0	32	
7038	0	32	
7039	0	33	
7040	0	32	
7041	0	33	
7042	0	32	
7043	0	32	
7044	0	32	
7045	0	34	
7046	0	33	
7047	0	33	
7048	0	35	
7049	0	33	
7050	0	34	
7051	0	34	
7052	0	35	
7053	0	37	
7054	0	36	
7055	0	39	
7056	0	39	
7057	0	38	
7058	0	37	
7059	0	40	
7060	0	41	
7061	0	39	
7062	0	40	
7063	0	39	
7064	0	39	
7065	0	40	
7066	0	39	
7067	0	40	
7068	0	40	
7069	0	40	
7070	0	43	
7071	0	44	
7072	0	45	
7073	0	44	
7074	0	45	
7075	0	46	
7076	0	46	
7077	0	48	
7078	0	45	
7079	0	47	
7080	0	49	
7081	0	47	
7082	0	47	
7083	0	48	
7084	0	48	
7085	0	47	
7086	0	47	
7087	0	48	
7088	0	47	
7089	0	50	
7090	0	50	
7091	0	51	
7092	0	52	
7093	0	52	
7094	0	52	
7095	0	53	
7096	0	54	
7097	0	55	
7098	0	56	
7099	0	53	
7100	0	54	
7101	0	53	
7102	0	55	
7103	0	55	
7104	0	55	
7105	0	53	
7106	0	55	
7107	0	54	
7108	0	56	
7109	0	56	
7110	0	57	
7111	0	57	
7112	0	57	
7113	0	58	
7114	0	59	
7115	0	62	
7116	0	62	
7117	0	62	
7118	0	61	
7119	0	61	
7120	0	62	
7121	0	63	
7122	0	61	
7123	0	61	
7124	0	62	
7125	0	62	
7126	0	62	
7127	0	62	
7128	0	63	
7129	0	63	
7130	0	64	
7131	0	64	
7132	0	66	
7133	0	66	
7134	0	65	
7135	0	66	
7136	0	67	
7137	0	67	
7138	0	67	
7139	0	68	
7140	0	65	
7141	0	67	
7142	0	67	
7143	0	67	
7144	0	66	
7145	0	67	
7146	0	65	
7147	0	66	
7148	0	66	
7149	0	67	
7150	0	68	
7151	0	66	
7152	0	68	
7153	0	70	
7154	0	69	
7155	0	67	
7156	0	71	
7157	0	69	
7158	0	69	
7159	0	71	
7160	0	71	
7161	0	69	
7162	0	68	
7163	0	67	
7164	0	70	
7165	0	69	
7166	0	69	
7167	0	68	
7168	0	68	
7169	0	68	
7170	0	69	
7171	0	69	
7172	0	70	
7173	0	70	
7174	0	70	
7175	0	71	
7176	0	71	
7177	0	72	
7178	0	72	
7179	0	72	
7180	0	73	
7181	0	71	
7182	0	72	
7183	0	72	
7184	0	70	
7185	0	69	
7186	0	70	
7187	0	71	
7188	0	71	
7189	0	69	
7190	0	71	
7191	0	71	
7192	0	73	
7193	0	74	
7194	0	72	
7195	0	73	
7196	0	72	
7197	0	73	
7198	0	74	
7199	0	72	
7200	0	72	
7201	0	72	
7202	0	73	
7203	0	71	
7204	0	72	
7205	0	72	
7206	0	73	
7207	0	72	
7208	0	71	
7209	0	74	
7210	0	74	
7211	0	72	
7212	0	74	
7213	0	75	
7214	0	77	
7215	0	77	
7216	0	78	
7217	0	79	
7218	0	78	
7219	0	77	
7220	0	77	
7221	0	77	
7222	0	77	
7223	0	78	
7224	0	78	
7225	0	76	
7226	0	79	
7227	0	81	
7228	0	80	
7229	0	80	
7230	0	81	
7231	0	81	
7232	0	81	
7233	0	82	
7234	0	84	
7235	0	82	
7236	0	86	
7237	0	85	
7238	0	88	
7239	0	88	
7240	0	86	
7241	0	87	
7242	0	87	
7243	0	86	
7244	0	89	
7245	0	87	
7246	0	87	
7247	0	89	
7248	0	90	
7249	0	91	
7250	0	92	
7251	0	92	
7252	0	92	
7253	0	93	
7254	0	95	
7255	0	93	
7256	0	94	
7257	0	95	
7258	0	95	
7259	0	97	
7260	0	95	
7261	0	98	
7262	0	95	
7263	0	96	
7264	0	94	
7265	0	96	
7266	0	97	
7267	0	97	
7268	0	97	
7269	0	96	
7270	0	99	
7271	0	98	
7272	0	100	
7273	0	100	
7274	0	100	
7275	0	102	
7276	0	104	
7277	0	101	
7278	0	102	
7279	0	102	
7280	0	104	
7281	0	104	
7282	0	103	
7283	0	101	
7284	0	102	
7285	0	102	
7286	0	104	
7287	0	103	
7288	0	102	
7289	0	102	
7290	0	105	
7291	0	105	
7292	0	107	
7293	0	107	
7294	0	106	
7295	0	108	
7296	0	106	
7297	0	108	
7298	0	107	
7299	0	106	
7300	0	107	
7301	0	110	
7302	0	108	
7303	0	107	
7304	0	105	
7305	0	106	
7306	0	107	
7307	0	106	
7308	0	106	
7309	0	107	
7310	0	109	
7311	0	109	
7312	0	109	
7313	0	112	
7314	0	111	
7315	0	111	
7316	0	110	
7317	0	110	
7318	0	111	
7319	0	111	
7320	0	111	
7321	0	110	
7322	0	111	
7323	0	112	
7324	0	113	
7325	0	111	
7326	0	110	
7327	0	110	
7328	0	109	
7329	0	110	
7330	0	112	
7331	0	111	
7332	0	113	
7333	0	112	
7334	0	112	
7335	0	113	
7336	0	111	
7337	0	113	
7338	0	114	
7339	0	113	
7340	0	112	
7341	0	112	
7342	0	112	
7343	0	109	
7344	0	112	
7345	0	112	
7346	0	113	
7347	0	113	
7348	0	111	
7349	0	111	
7350	0	113	
7351	0	112	
7352	0	112	
7353	0	116	
7354	0	115	
7355	0	113	
7356	0	115	
7357	0	114	
7358	0	115	
7359	0	113	
7360	0	113	
7361	0	115	
7362	0	114	
7363	0	114	
7364	0	115	
7365	0	113	
7366	0	112	
7367	0	114	
7368	0	115	
7369	0	115	
7370	0	113	
7371	0	115	
7372	0	113	
7373	0	116	
7374	0	116	
7375	0	116	
7376	0	117	
7377	0	117	
7378	0	118	
7379	0	118	
7380	0	115	
7381	0	117	
7382	0	115	
7383	0	115	
7384	0	116	
7385	0	116	
7386	0	115	
7387	0	114	
7388	0	115	
7389	0	116	
7390	0	117	
7391	0	117	
7392	0	117	
7393	0	120	
7394	0	119	
7395	0	117	
7396	0	119	
7397	0	121	
7398	0	119	
7399	0	118	
7400	0	119	
7401	0	119	
7402	0	117	
7403	0	118	
7404	0	119	
7405	0	118	
7406	0	119	
7407	0	116	
7408	0	119	
7409	0	118	
7410	0	119	
7411	0	120	
7412	0	119	
7413	0	121	
7414	0	122	
7415	0	121	
7416	0	123	
7417	0	119	
7418	0	122	
7419	0	121	
7420	0	121	
7421	0	121	
7422	0	120	
7423	0	122	
7424	0	122	
7425	0	122	
7426	0	121	
7427	0	122	
7428	0	119	
7429	0	122	
7430	0	122	
7431	0	122	
7432	0	122	
7433	0	123	
7434	0	124	
7435	0	124	
7436	0	127	
7437	0	125	
7438	0	121	
7439	0	123	
7440	0	124	
7441	0	123	
7442	0	125	
7443	0	122	
7444	0	123	
7445	0	123	
7446	0	124	
7447	0	125	
7448	0	124	
7449	0	126	
7450	0	126	
7451	0	126	
7452	0	127	
7453	0	127	
7454	0	129	
7455	0	126	
7456	0	127	
7457	0	129	
7458	0	129	
7459	0	129	
7460	0	130	
7461	0	128	
7462	0	129	
7463	0	127	
7464	0	127	
7465	0	127	
7466	0	130	
7467	0	129	
7468	0	129	
7469	0	131	
7470	0	130	
7471	0	129	
7472	0	132	
7473	0	132	
7474	0	134	
7475	0	133	
7476	0	133	
7477	0	132	
7478	0	134	
7479	0	133	
7480	0	134	
7481	0	133	
7482	0	137	
7483	0	134	
7484	0	133	
7485	0	135	
7486	0	138	
7487	0	138	
7488	0	138	
7489	0	137	
7490	0	137	
7491	0	137	
7492	0	140	
7493	0	141	
7494	0	138	
7495	0	142	
7496	0	141	
7497	0	141	
7498	0	145	
7499	0	141	
7500	0	143	
7501	0	143	
7502	0	142	
7503	0	143	
7504	0	144	
7505	0	142	
7506	0	143	
7507	0	143	
7508	0	142	
7509	0	142	
7510	0	145	
7511	0	144	
7512	0	147	
7513	0	146	
7514	0	148	
7515	0	149	
7516	0	148	
7517	0	148	
7518	0	149	
7519	0	148	
7520	0	146	
7521	0	147	
7522	0	148	
7523	0	148	
7524	0	147	
7525	0	147	
7526	0	147	
7527	0	149	
7528	0	149	
7529	0	147	
7530	0	149	
7531	0	150	
7532	0	150	
7533	0	151	
7534	0	152	
7535	0	150	
7536	0	149	
7537	0	152	
7538	0	153	
7539	0	149	
7540	0	151	
7541	0	151	
7542	0	152	
7543	0	153	
7544	0	149	
7545	0	151	
7546	0	149	
7547	0	151	
7548	0	152	
7549	0	153	
7550	0	151	
7551	0	152	
7552	0	153	
7553	0	155	
7554	0	156	
7555	0	157	
7556	0	157	
7557	0	155	
7558	0	155	
7559	0	154	
7560	0	156	
7561	0	153	
7562	0	155	
7563	0	155	
7564	0	153	
7565	0	155	
7566	0	155	
7567	0	155	
7568	0	155	
7569	0	155	
7570	0	154	
7571	0	157	
7572	0	157	
7573	0	156	
7574	0	158	
7575	0	157	
7576	0	156	
7577	0	157	
7578	0	155	
7579	0	156	
7580	0	157	
7581	0	158	
7582	0	157	
7583	0	157	
7584	0	157	
7585	0	155	
7586	0	155	
7587	0	157	
7588	0	156	
7589	0	156	
7590	0	156	
7591	0	158	
7592	0	158	
7593	0	157	
7594	0	160	
7595	0	159	
7596	0	158	
7597	0	157	
7598	0	157	
7599	0	159	
7600	0	156	
7601	0	155	
7602	0	157	
7603	0	157	
7604	0	155	
7605	0	156	
7606	0	158	
7607	0	157	
7608	0	156	
7609	0	157	
7610	0	159	
7611	0	157	
7612	0	154	
7613	0	158	
7614	0	158	
7615	0	159	
7616	0	159	
7617	0	159	
7618	0	159	
7619	0	157	
7620	0	158	
7621	0	157	
7622	0	157	
7623	0	153	
7624	0	156	
7625	0	155	
7626	0	155	
7627	0	157	
7628	0	155	
7629	0	154	
7630	0	154	
7631	0	154	
7632	0	156	
7633	0	156	
7634	0	156	
7635	0	156	
7636	0	156	
7637	0	155	
7638	0	153	
7639	0	154	
7640	0	153	
7641	0	154	
7642	0	153	
7643	0	152	
7644	0	150	
7645	0	151	
7646	0	150	
7647	0	150	
7648	0	150	
7649	0	149	
7650	0	151	
7651	0	151	
7652	0	151	
7653	0	153	
7654	0	152	
7655	0	151	
7656	0	150	
7657	0	149	
7658	0	148	
7659	0	148	
7660	0	149	
7661	0	150	
7662	0	148	
7663	0	146	
7664	0	146	
7665	0	146	
7666	0	144	
7667	0	146	
7668	0	146	
7669	0	145	
7670	0	146	
7671	0	147	
7672	0	147	
7673	0	147	
7674	0	148	
7675	0	146	
7676	0	146	
7677	0	146	
7678	0	144	
7679	0	145	
7680	0	146	
7681	0	141	
7682	0	142	
7683	0	140	
7684	0	141	
7685	0	139	
7686	0	141	
7687	0	140	
7688	0	138	
7689	0	137	
7690	0	140	
7691	0	138	
7692	0	137	
7693	0	138	
7694	0	135	
7695	0	138	
7696	0	137	
7697	0	137	
7698	0	135	
7699	0	134	
7700	0	133	
7701	0	131	
7702	0	132	
7703	0	131	
7704	0	129	
7705	0	130	
7706	0	129	
7707	0	129	
7708	0	129	
7709	0	130	
7710	0	130	
7711	0	129	
7712	0	128	
7713	0	128	
7714	0	130	
7715	0	127	
7716	0	129	
7717	0	128	
7718	0	125	
7719	0	126	
7720	0	126	
7721	0	126	
7722	0	124	
7723	0	122	
7724	0	121	
7725	0	121	
7726	0	122	
7727	0	122	
7728	0	121	
7729	0	121	
7730	0	121	
7731	0	121	
7732	0	122	
7733	0	121	
7734	0	124	
7735	0	121	
7736	0	123	
7737	0	121	
7738	0	119	
7739	0	118	
7740	0	119	
7741	0	117	
7742	0	118	
7743	0	116	
7744	0	115	
7745	0	113	
7746	0	115	
7747	0	116	
7748	0	113	
7749	0	113	
7750	0	116	
7751	0	114	
7752	0	113	
7753	0	115	
7754	0	115	
7755	0	112	
7756	0	112	
7757	0	111	
7758	0	112	
7759	0	112	
7760	0	110	
7761	0	110	
7762	0	109	
7763	0	108	
7764	0	106	
7765	0	106	
7766	0	108	
7767	0	108	
7768	0	106	
7769	0	107	
7770	0	108	
7771	0	105	
7772	0	107	
7773	0	107	
7774	0	105	
7775	0	107	
7776	0	106	
7777	0	105	
7778	0	104	
7779	0	102	
7780	0	104	
7781	0	104	
7782	0	102	
7783	0	100	
7784	0	98	
7785	0	100	
7786	0	98	
7787	0	100	
7788	0	98	
7789	0	98	
7790	0	100	
7791	0	100	
7792	0	99	
7793	0	99	
7794	0	100	
7795	0	98	
7796	0	98	
7797	0	98	
7798	0	98	
7799	0	98	
7800	0	98	
7801	0	98	
7802	0	97	
7803	0	95	
7804	0	96	
7805	0	95	
7806	0	94	
7807	0	94	
7808	0	95	
7809	0	95	
7810	0	94	
7811	0	94	
7812	0	95	
7813	0	97	
7814	0	95	
7815	0	96	
7816	0	95	
7817	0	94	
7818	0	96	
7819	0	94	
7820	0	92	
7821	0	92	
7822	0	90	
7823	0	90	
7824	0	90	
7825	0	90	
7826	0	90	
7827	0	90	
7828	0	88	
7829	0	88	
7830	0	90	
7831	0	91	
7832	0	91	
7833	0	92	
7834	0	90	
7835	0	90	
7836	0	90	
7837	0	90	
7838	0	90	
7839	0	90	
7840	0	88	
7841	0	89	
7842	0	86	
7843	0	86	
7844	0	88	
7845	0	85	
7846	0	86	
7847	0	86	
7848	0	89	
7849	0	87	
7850	0	86	
7851	0	88	
7852	0	89	
7853	0	86	
7854	0	87	
7855	0	88	
7856	0	89	
7857	0	89	
7858	0	86	
7859	0	85	
7860	0	87	
7861	0	86	
7862	0	85	
7863	0	84	
7864	0	84	
7865	0	81	
7866	0	83	
7867	0	84	
7868	0	83	
7869	0	83	
7870	0	83	
7871	0	84	
7872	0	85	
7873	0	85	
7874	0	83	
7875	0	85	
7876	0	85	
7877	0	81	
7878	0	83	
7879	0	82	
7880	0	78	
7881	0	81	
7882	0	80	
7883	0	77	
7884	0	77	
7885	0	77	
7886	0	77	
7887	0	76	
7888	0	77	
7889	0	79	
7890	0	76	
7891	0	77	
7892	0	77	
7893	0	78	
7894	0	78	
7895	0	78	
7896	0	78	
7897	0	76	
7898	0	76	
7899	0	75	
7900	0	73	
7901	0	73	
7902	0	73	
7903	0	71	
7904	0	70	
7905	0	70	
7906	0	70	
7907	0	70	
7908	0	68	
7909	0	71	
7910	0	69	
7911	0	68	
7912	0	68	
7913	0	69	
7914	0	69	
7915	0	69	
7916	0	69	
7917	0	69	
7918	0	67	
7919	0	66	
7920	0	66	
7921	0	65	
7922	0	63	
7923	0	64	
7924	0	63	
7925	0	62	
7926	0	63	
7927	0	63	
7928	0	62	
7929	0	61	
7930	0	62	
7931	0	63	
7932	0	60	
7933	0	63	
7934	0	63	
7935	0	61	
7936	0	62	
7937	0	59	
7938	0	59	
7939	0	60	
7940	0	57	
7941	0	55	
7942	0	56	
7943	0	56	
7944	0	54	
7945	0	52	
7946	0	52	
7947	0	55	
7948	0	52	
7949	0	51	
7950	0	54	
7951	0	53	
7952	0	55	
7953	0	52	
7954	0	51	
7955	0	52	
7956	0	52	
7957	0	51	
7958	0	49	
7959	0	50	
7960	0	50	
7961	0	49	
7962	0	50	
7963	0	46	
7964	0	46	
7965	0	44	
7966	0	45	
7967	0	45	
7968	0	44	
7969	0	44	
7970	0	45	
7971	0	45	
7972	0	46	
7973	0	45	
7974	0	45	
7975	0	44	
7976	0	45	
7977	0	46	
7978	0	42	
7979	0	43	
7980	0	43	
7981	0	41	
7982	0	40	
7983	0	39	
7984	0	38	
7985	0	40	
7986	0	39	
7987	0	38	
7988	0	38	
7989	0	38	
7990	0	37	
7991	0	39	
7992	0	39	
7993	0	38	
7994	0	38	
7995	0	39	
7996	0	39	
7997	0	38	
7998	0	38	
7999	0	39	
8000	0	38	
8001	0	36	
8002	0	36	
8003	0	34	
8004	0	34	
8005	0	35	
8006	0	36	
8007	0	34	
8008	0	35	
8009	0	35	
8010	0	34	
8011	0	36	
8012	0	36	
8013	0	36	
8014	0	37	
8015	0	36	
8016	0	36	
8017	0	36	
8018	0	37	
8019	0	35	
8020	0	35	
8021	0	34	
8022	0	34	
8023	0	34	
8024	0	34	
8025	0	33	
8026	0	34	
8027	0	33	
8028	0	35	
8029	0	34	
8030	0	35	
8031	0	36	
8032	0	35	
8033	0	37	
8034	0	35	
8035	0	36	
8036	0	37	
8037	0	37	
8038	0	36	
8039	0	35	
8040	0	35	
8041	0	35	
8042	0	35	
8043	0	34	
8044	0	35	
8045	0	34	
8046	0	34	
8047	0	35	
8048	0	34	
8049	0	36	
8050	0	37	
8051	0	36	
8052	0	38	
8053	0	37	
8054	0	37	
8055	0	37	
8056	0	39	
8057	0	39	
8058	0	39	
8059	0	38	
8060	0	38	
8061	0	39	
8062	0	37	
8063	0	36	
8064	0	36	
8065	0	38	
8066	0	38	
8067	0	38	
8068	0	41	
8069	0	40	
8070	0	40	
8071	0	41	
8072	0	43	
8073	0	42	
8074	0	42	
8075	0	42	
8076	0	43	
8077	0	43	
8078	0	43	
8079	0	44	
8080	0	43	
8081	0	43	
8082	0	44	
8083	0	43	
8084	0	43	
8085	0	44	
8086	0	44	
8087	0	45	
8088	0	46	
8089	0	46	
8090	0	48	
8091	0	47	
8092	0	49	
8093	0	49	
8094	0	51	
8095	0	50	
8096	0	50	
8097	0	51	
8098	0	52	
8099	0	51	
8100	0	53	
8101	0	52	
8102	0	51	
8103	0	51	
8104	0	51	
8105	0	52	
8106	0	52	
8107	0	53	
8108	0	55	
8109	0	54	
8110	0	56	
8111	0	56	
8112	0	57	
8113	0	59	
8114	0	57	
8115	0	59	
8116	0	59	
8117	0	59	
8118	0	60	
8119	0	60	
8120	0	59	
8121	0	58	
8122	0	59	
8123	0	58	
8124	0	61	
8125	0	61	
8126	0	61	
8127	0	58	
8128	0	60	
8129	0	61	
8130	0	65	
8131	0	63	
8132	0	63	
8133	0	64	
8134	0	65	
8135	0	65	
8136	0	66	
8137	0	65	
8138	0	66	
8139	0	65	
8140	0	65	
8141	0	66	
8142	0	66	
8143	0	66	
8144	0	65	
8145	0	65	
8146	0	66	
8147	0	65	
8148	0	65	
8149	0	65	
8150	0	67	
8151	0	66	
8152	0	68	
8153	0	69	
8154	0	68	
8155	0	70	
8156	0	68	
8157	0	69	
8158	0	68	
8159	0	68	
8160	0	68	
8161	0	68	
8162	0	68	
8163	0	68	
8164	0	66	
8165	0	68	
8166	0	68	
8167	0	69	
8168	0	68	
8169	0	70	
8170	0	71	
8171	0	69	
8172	0	72	
8173	0	71	
8174	0	71	
8175	0	73	
8176	0	72	
8177	0	73	
8178	0	72	
8179	0	70	
8180	0	71	
8181	0	72	
8182	0	71	
8183	0	72	
8184	0	71	
8185	0	71	
8186	0	70	
8187	0	72	
8188	0	73	
8189	0	72	
8190	0	73	
8191	0	74	
8192	0	74	
8193	0	76	
8194	0	75	
8195	0	77	
8196	0	76	
8197	0	73	
8198	0	73	
8199	0	74	
8200	0	75	
8201	0	73	
8202	0	73	
8203	0	73	
8204	0	74	
8205	0	73	
8206	0	74	
8207	0	74	
8208	0	74	
8209	0	74	
8210	0	75	
8211	0	75	
8212	0	76	
8213	0	77	
8214	0	77	
8215	0	78	
8216	0	77	
8217	0	77	
8218	0	78	
8219	0	77	
8220	0	78	
8221	0	77	
8222	0	75	
8223	0	74	
8224	0	76	
8225	0	75	
8226	0	76	
8227	0	76	
8228	0	77	
8229	0	78	
8230	0	79	
8231	0	78	
8232	0	78	
8233	0	79	
8234	0	79	
8235	0	80	
8236	0	81	
8237	0	80	
8238	0	79	
8239	0	81	
8240	0	82	
8241	0	81	
8242	0	80	
8243	0	80	
8244	0	80	
8245	0	81	
8246	0	81	
8247	0	80	
8248	0	81	
8249	0	81	
8250	0	82	
8251	0	81	
8252	0	83	
8253	0	83	
8254	0	83	
8255	0	82	
8256	0	85	
8257	0	83	
8258	0	84	
8259	0	84	
8260	0	83	
8261	0	83	
8262	0	82	
8263	0	83	
8264	0	81	
8265	0	81	
8266	0	85	
8267	0	84	
8268	0	83	
8269	0	84	
8270	0	84	
8271	0	85	
8272	0	85	
8273	0	85	
8274	0	87	
8275	0	88	
8276	0	87	
8277	0	88	
8278	0	86	
8279	0	87	
8280	0	88	
8281	0	87	
8282	0	85	
8283	0	87	
8284	0	86	
8285	0	87	
8286	0	86	
8287	0	88	
8288	0	88	
8289	0	88	
8290	0	89	
8291	0	89	
8292	0	91	
8293	0	90	
8294	0	91	
8295	0	91	
8296	0	92	
8297	0	91	
8298	0	92	
8299	0	92	
8300	0	89	
8301	0	90	
8302	0	89	
8303	0	91	
8304	0	91	
8305	0	92	
8306	0	91	
8307	0	91	
8308	0	93	
8309	0	93	
8310	0	92	
8311	0	92	
8312	0	92	
8313	0	96	
8314	0	98	
8315	0	95	
8316	0	95	
8317	0	95	
8318	0	97	
8319	0	95	
8320	0	94	
8321	0	96	
8322	0	93	
8323	0	94	
8324	0	95	
8325	0	96	
8326	0	96	
8327	0	96	
8328	0	97	
8329	0	97	
8330	0	97	
8331	0	97	
8332	0	99	
8333	0	99	
8334	0	100	
8335	0	97	
8336	0	100	
8337	0	99	
8338	0	101	
8339	0	99	
8340	0	100	
8341	0	99	
8342	0	100	
8343	0	100	
8344	0	99	
8345	0	100	
8346	0	99	
8347	0	101	
8348	0	100	
8349	0	102	
8350	0	104	
8351	0	103	
8352	0	102	
8353	0	102	
8354	0	104	
8355	0	103	
8356	0	106	
8357	0	106	
8358	0	104	
8359	0	105	
8360	0	104	
8361	0	105	
8362	0	103	
8363	0	103	
8364	0	105	
8365	0	104	
8366	0	104	
8367	0	104	
8368	0	106	
8369	0	105	
8370	0	106	
8371	0	109	
8372	0	106	
8373	0	108	
8374	0	108	
8375	0	108	
8376	0	110	
8377	0	108	
8378	0	109	
8379	0	108	
8380	0	111	
8381	0	109	
8382	0	108	
8383	0	107	
8384	0	110	
8385	0	107	
8386	0	108	
8387	0	108	
8388	0	110	
8389	0	110	
8390	0	110	
8391	0	110	
8392	0	114	
8393	0	112	
8394	0	111	
8395	0	111	
8396	0	112	
8397	0	112	
8398	0	114	
8399	0	115	
8400	0	113	
8401	0	112	
8402	0	114	
8403	0	113	
8404	0	111	
8405	0	111	
8406	0	113	
8407	0	114	
8408	0	114	
8409	0	114	
8410	0	115	
8411	0	114	
8412	0	115	
8413	0	117	
8414	0	113	
8415	0	116	
8416	0	117	
8417	0	117	
8418	0	118	
8419	0	115	
8420	0	118	
8421	0	116	
8422	0	116	
8423	0	115	
8424	0	115	
8425	0	116	
8426	0	116	
8427	0	115	
8428	0	117	
8429	0	116	
8430	0	119	
8431	0	119	
8432	0	118	
8433	0	119	
8434	0	119	
8435	0	122	
8436	0	121	
8437	0	120	
8438	0	121	
8439	0	121	
8440	0	121	
8441	0	122	
8442	0	119	
8443	0	120	
8444	0	118	
8445	0	121	
8446	0	121	
8447	0	121	
8448	0	121	
8449	0	121	
8450	0	123	
8451	0	123	
8452	0	124	
8453	0	124	
8454	0	124	
8455	0	126	
8456	0	123	
8457	0	123	
8458	0	125	
8459	0	123	
8460	0	125	
8461	0	123	
8462	0	123	
8463	0	123	
8464	0	121	
8465	0	121	
8466	0	122	
8467	0	124	
8468	0	124	
8469	0	123	
8470	0	125	
8471	0	126	
8472	0	128	
8473	0	126	
8474	0	127	
8475	0	129	
8476	0	128	
8477	0	127	
8478	0	129	
8479	0	127	
8480	0	127	
8481	0	125	
8482	0	129	
8483	0	127	
8484	0	129	
8485	0	128	
8486	0	127	
8487	0	127	
8488	0	128	
8489	0	129	
8490	0	130	
8491	0	130	
8492	0	130	
8493	0	130	
8494	0	130	
8495	0	131	
8496	0	133	
8497	0	133	
8498	0	131	
8499	0	132	
8500	0	130	
8501	0	130	
8502	0	130	
8503	0	131	
8504	0	131	
8505	0	128	
8506	0	131	
8507	0	130	
8508	0	131	
8509	0	131	
8510	0	131	
8511	0	132	
8512	0	134	
8513	0	134	
8514	0	134	
8515	0	133	
8516	0	135	
8517	0	136	
8518	0	134	
8519	0	133	
8520	0	136	
8521	0	134	
8522	0	133	
8523	0	134	
8524	0	134	
8525	0	134	
8526	0	131	
8527	0	133	
8528	0	133	
8529	0	134	
8530	0	136	
8531	0	135	
8532	0	137	
8533	0	136	
8534	0	138	
8535	0	136	
8536	0	139	
8537	0	136	
8538	0	140	
8539	0	136	
8540	0	138	
8541	0	136	
8542	0	137	
8543	0	137	
8544	0	136	
8545	0	135	
8546	0	137	
8547	0	136	
8548	0	135	
8549	0	137	
8550	0	136	
8551	0	136	
8552	0	138	
8553	0	141	
8554	0	140	
8555	0	139	
8556	0	140	
8557	0	141	
8558	0	140	
8559	0	139	
8560	0	139	
8561	0	139	
8562	0	140	
8563	0	138	
8564	0	138	
8565	0	138	
8566	0	139	
8567	0	140	
8568	0	140	
8569	0	139	
8570	0	142	
8571	0	141	
8572	0	142	
8573	0	141	
8574	0	143	
8575	0	143	
8576	0	143	
8577	0	142	
8578	0	143	
8579	0	143	
8580	0	142	
8581	0	142	
8582	0	143	
8583	0	141	
8584	0	141	
8585	0	142	
8586	0	140	
8587	0	141	
8588	0	141	
8589	0	143	
8590	0	142	
8591	0	143	
8592	0	145	
8593	0	147	
8594	0	145	
8595	0	146	
8596	0	146	
8597	0	147	
8598	0	147	
8599	0	149	
8600	0	146	
8601	0	147	
8602	0	146	
8603	0	145	
8604	0	147	
8605	0	146	
8606	0	144	
8607	0	146	
8608	0	146	
8609	0	145	
8610	0	147	
8611	0	149	
8612	0	148	
8613	0	148	
8614	0	147	
8615	0	147	
8616	0	148	
8617	0	149	
8618	0	148	
8619	0	148	
8620	0	145	
8621	0	146	
8622	0	146	
8623	0	142	
8624	0	146	
8625	0	144	
8626	0	142	
8627	0	144	
8628	0	144	
8629	0	145	
8630	0	143	
8631	0	145	
8632	0	145	
8633	0	146	
8634	0	147	
8635	0	144	
8636	0	145	
8637	0	146	
8638	0	144	
8639	0	143	
8640	0	142	
8641	0	144	
8642	0	143	
8643	0	144	
8644	0	141	
8645	0	142	
8646	0	142	
8647	0	142	
8648	0	141	
8649	0	142	
8650	0	142	
8651	0	143	
8652	0	143	
8653	0	143	
8654	0	144	
8655	0	141	
8656	0	144	
8657	0	143	
8658	0	142	
8659	0	145	
8660	0	141	
8661	0	139	
8662	0	141	
8663	0	141	
8664	0	138	
8665	0	137	
8666	0	138	
8667	0	139	
8668	0	139	
8669	0	140	
8670	0	138	
8671	0	140	
8672	0	138	
8673	0	138	
8674	0	140	
8675	0	140	
8676	0	142	
8677	0	139	
8678	0	138	
8679	0	139	
8680	0	138	
8681	0	136	
8682	0	135	
8683	0	136	
8684	0	136	
8685	0	135	
8686	0	134	
8687	0	133	
8688	0	135	
8689	0	134	
8690	0	134	
8691	0	134	
8692	0	134	
8693	0	138	
8694	0	134	
8695	0	135	
8696	0	135	
8697	0	134	
8698	0	136	
8699	0	136	
8700	0	133	
8701	0	133	
8702	0	132	
8703	0	132	
8704	0	129	
8705	0	129	
8706	0	129	
8707	0	131	
8708	0	129	
8709	0	131	
8710	0	130	
8711	0	131	
8712	0	133	
8713	0	131	
8714	0	130	
8715	0	133	
8716	0	130	
8717	0	130	
8718	0	130	
8719	0	130	
8720	0	131	
8721	0	130	
8722	0	129	
8723	0	129	
8724	0	129	
8725	0	127	
8726	0	126	
8727	0	128	
8728	0	128	
8729	0	128	
8730	0	129	
8731	0	129	
8732	0	129	
8733	0	131	
8734	0	130	
8735	0	129	
8736	0	130	
8737	0	129	
8738	0	127	
8739	0	129	
8740	0	127	
8741	0	128	
8742	0	125	
8743	0	126	
8744	0	124	
8745	0	124	
8746	0	125	
8747	0	123	
8748	0	124	
8749	0	125	
8750	0	125	
8751	0	124	
8752	0	122	
8753	0	125	
8754	0	124	
8755	0	127	
8756	0	126	
8757	0	123	
8758	0	125	
8759	0	123	
8760	0	123	
8761	0	122	
8762	0	122	
8763	0	120	
8764	0	122	
8765	0	120	
8766	0	119	
8767	0	119	
8768	0	120	
8769	0	119	
8770	0	120	
8771	0	121	
8772	0	117	
8773	0	119	
8774	0	120	
8775	0	119	
8776	0	117	
8777	0	119	
8778	0	119	
8779	0	117	
8780	0	116	
8781	0	116	
8782	0	114	
8783	0	115	
8784	0	113	
8785	0	113	
8786	0	114	
8787	0	114	
8788	0	114	
8789	0	116	
8790	0	114	
8791	0	113	
8792	0	113	
8793	0	115	
8794	0	115	
8795	0	112	
8796	0	116	
8797	0	112	
8798	0	113	
8799	0	112	
8800	0	109	
8801	0	108	
8802	0	110	
8803	0	109	
8804	0	108	
8805	0	107	
8806	0	107	
8807	0	105	
8808	0	107	
8809	0	107	
8810	0	107	
8811	0	107	
8812	0	109	
8813	0	107	
8814	0	107	
8815	0	106	
8816	0	106	
8817	0	107	
8818	0	105	
8819	0	104	
8820	0	103	
8821	0	104	
8822	0	102	
8823	0	103	
8824	0	102	
8825	0	100	
8826	0	100	
8827	0	101	
8828	0	100	
8829	0	102	
8830	0	102	
8831	0	101	
8832	0	101	
8833	0	102	
8834	0	102	
8835	0	102	
8836	0	103	
8837	0	102	
8838	0	99	
8839	0	99	
8840	0	99	
8841	0	97	
8842	0	100	
8843	0	98	
8844	0	98	
8845	0	98	
8846	0	98	
8847	0	99	
8848	0	100	
8849	0	98	
8850	0	99	
8851	0	98	
8852	0	100	
8853	0	98	
8854	0	99	
8855	0	97	
8856	0	100	
8857	0	97	
8858	0	99	
8859	0	98	
8860	0	96	
8861	0	98	
8862	0	93	
8863	0	93	
8864	0	93	
8865	0	93	
8866	0	92	
8867	0	94	
8868	0	93	
8869	0	93	
8870	0	96	
8871	0	92	
8872	0	95	
8873	0	95	
8874	0	96	
8875	0	96	
8876	0	93	
8877	0	95	
8878	0	93	
8879	0	92	
8880	0	92	
8881	0	89	
8882	0	90	
8883	0	89	
8884	0	87	
8885	0	88	
8886	0	87	
8887	0	88	
8888	0	87	
8889	0	89	
8890	0	88	
8891	0	88	
8892	0	91	
8893	0	88	
8894	0	87	
8895	0	88	
8896	0	87	
8897	0	87	
8898	0	88	
8899	0	86	
8900	0	85	
8901	0	87	
8902	0	84	
8903	0	86	
8904	0	83	
8905	0	81	
8906	0	82	
8907	0	82	
8908	0	82	
8909	0	81	
8910	0	82	
8911	0	82	
8912	0	82	
8913	0	83	
8914	0	83	
8915	0	81	
8916	0	80	
8917	0	81	
8918	0	80	
8919	0	78	
8920	0	79	
8921	0	75	
8922	0	76	
8923	0	76	
8924	0	76	
8925	0	75	
8926	0	76	
8927	0	76	
8928	0	76	
8929	0	75	
8930	0	74	
8931	0	75	
8932	0	74	
8933	0	75	
8934	0	74	
8935	0	73	
8936	0	75	
8937	0	76	
8938	0	74	
8939	0	72	
8940	0	71	
8941	0	71	
8942	0	69	
8943	0	70	
8944	0	69	
8945	0	68	
8946	0	67	
8947	0	67	
8948	0	68	
8949	0	67	
8950	0	69	
8951	0	68	
8952	0	69	
8953	0	67	
8954	0	70	
8955	0	69	
8956	0	68	
8957	0	68	
8958	0	66	
8959	0	65	
8960	0	66	
8961	0	66	
8962	0	64	
8963	0	66	
8964	0	64	
8965	0	61	
8966	0	65	
8967	0	62	
8968	0	63	
8969	0	64	
8970	0	63	
8971	0	63	
8972	0	64	
8973	0	64	
8974	0	66	
8975	0	62	
8976	0	64	
8977	0	64	
8978	0	64	
8979	0	61	
8980	0	60	
8981	0	61	
8982	0	60	
8983	0	59	
8984	0	59	
8985	0	60	
8986	0	59	
8987	0	57	
8988	0	56	
8989	0	58	
8990	0	59	
8991	0	58	
8992	0	60	
8993	0	60	
8994	0	57	
8995	0	58	
8996	0	58	
8997	0	60	
8998	0	59	
8999	0	56	
9000	0	57	
9001	0	57	
9002	0	55	
9003	0	55	
9004	0	54	
9005	0	54	
9006	0	55	
9007	0	53	
9008	0	55	
9009	0	54	
9010	0	54	
9011	0	56	
9012	0	55	
9013	0	56	
9014	0	55	
9015	0	54	
9016	0	56	
9017	0	55	
9018	0	56	
9019	0	53	
9020	0	53	
9021	0	53	
9022	0	51	
9023	0	51	
9024	0	51	
9025	0	51	
9026	0	49	
9027	0	51	
9028	0	51	
9029	0	51	
9030	0	50	
9031	0	52	
9032	0	53	
9033	0	54	
9034	0	50	
9035	0	53	
9036	0	52	
9037	0	49	
9038	0	49	
9039	0	49	
9040	0	47	
9041	0	48	
9042	0	48	
9043	0	46	
9044	0	47	
9045	0	44	
9046	0	47	
9047	0	47	
9048	0	45	
9049	0	47	
9050	0	47	
9051	0	45	
9052	0	48	
9053	0	45	
9054	0	47	
9055	0	47	
9056	0	48	
9057	0	46	
9058	0	47	
9059	0	46	
9060	0	44	
9061	0	44	
9062	0	43	
9063	0	42	
9064	0	42	
9065	0	42	
9066	0	44	
9067	0	41	
9068	0	43	
9069	0	43	
9070	0	44	
9071	0	43	
9072	0	47	
9073	0	45	
9074	0	44	
9075	0	44	
9076	0	44	
9077	0	44	
9078	0	43	
9079	0	45	
9080	0	43	
9081	0	43	
9082	0	43	
9083	0	44	
9084	0	42	
9085	0	43	
9086	0	43	
9087	0	44	
9088	0	43	
9089	0	42	
9090	0	43	
9091	0	45	
9092	0	44	
9093	0	46	
9094	0	45	
9095	0	45	
9096	0	46	
9097	0	44	
9098	0	46	
9099	0	46	
9100	0	45	
9101	0	45	
9102	0	42	
9103	0	43	
9104	0	45	
9105	0	45	
9106	0	44	
9107	0	45	
9108	0	46	
9109	0	46	
9110	0	47	
9111	0	48	
9112	0	48	
9113	0	50	
9114	0	49	
9115	0	49	
9116	0	50	
9117	0	49	
9118	0	50	
9119	0	50	
9120	0	49	
9121	0	51	
9122	0	49	
9123	0	50	
9124	0	50	
9125	0	49	
9126	0	50	
9127	0	51	
9128	0	52	
9129	0	52	
9130	0	53	
9131	0	55	
9132	0	56	
9133	0	56	
9134	0	56	
9135	0	55	
9136	0	58	
9137	0	58	
9138	0	57	
9139	0	56	
9140	0	57	
9141	0	55	
9142	0	58	
9143	0	57	
9144	0	58	
9145	0	57	
9146	0	58	
9147	0	57	
9148	0	58	
9149	0	59	
9150	0	58	
9151	0	60	
9152	0	62	
9153	0	62	
9154	0	62	
9155	0	63	
9156	0	62	
9157	0	63	
9158	0	63	
9159	0	63	
9160	0	63	
9161	0	63	
9162	0	62	
9163	0	64	
9164	0	62	
9165	0	62	
9166	0	62	
9167	0	60	
9168	0	64	
9169	0	63	
9170	0	64	
9171	0	64	
9172	0	64	
9173	0	65	
9174	0	65	
9175	0	66	
9176	0	65	
9177	0	66	
9178	0	65	
9179	0	65	
9180	0	66	
9181	0	65	
9182	0	66	
9183	0	65	
9184	0	65	
9185	0	65	
9186	0	65	
9187	0	66	
9188	0	65	
9189	0	69	
9190	0	67	
9191	0	67	
9192	0	66	
9193	0	67	
9194	0	66	
9195	0	68	
9196	0	69	
9197	0	69	
9198	0	68	
9199	0	69	
9200	0	68	
9201	0	68	
9202	0	66	
9203	0	67	
9204	0	66	
9205	0	66	
9206	0	66	
9207	0	67	
9208	0	67	
9209	0	67	
9210	0	68	
9211	0	68	
9212	0	68	
9213	0	69	
9214	0	69	
9215	0	71	
9216	0	71	
9217	0	71	
9218	0	69	
9219	0	69	
9220	0	68	
9221	0	69	
9222	0	68	
9223	0	69	
9224	0	69	
9225	0	67	
9226	0	67	
9227	0	68	
9228	0	67	
9229	0	68	
9230	0	70	
9231	0	70	
9232	0	71	
9233	0	70	
9234	0	71	
9235	0	72	
9236	0	72	
9237	0	71	
9238	0	71	
9239	0	73	
9240	0	71	
9241	0	72	
9242	0	71	
9243	0	69	
9244	0	71	
9245	0	71	
9246	0	70	
9247	0	71	
9248	0	74	
9249	0	72	
9250	0	72	
9251	0	73	
9252	0	72	
9253	0	72	
9254	0	74	
9255	0	75	
9256	0	73	
9257	0	75	
9258	0	72	
9259	0	73	
9260	0	73	
9261	0	74	
9262	0	73	
9263	0	72	
9264	0	72	
9265	0	73	
9266	0	72	
9267	0	73	
9268	0	73	
9269	0	73	
9270	0	75	
9271	0	75	
9272	0	76	
9273	0	76	
9274	0	75	
9275	0	75	
9276	0	77	
9277	0	78	
9278	0	78	
9279	0	78	
9280	0	76	
9281	0	76	
9282	0	75	
9283	0	74	
9284	0	77	
9285	0	76	
9286	0	76	
9287	0	76	
9288	0	76	
9289	0	78	
9290	0	79	
9291	0	80	
9292	0	79	
9293	0	80	
9294	0	78	
9295	0	80	
9296	0	80	
9297	0	81	
9298	0	80	
9299	0	79	
9300	0	81	
9301	0	79	
9302	0	79	
9303	0	79	
9304	0	77	
9305	0	81	
9306	0	79	
9307	0	79	
9308	0	80	
9309	0	80	
9310	0	79	
9311	0	83	
9312	0	82	
9313	0	82	
9314	0	85	
9315	0	85	
9316	0	83	
9317	0	82	
9318	0	83	
9319	0	84	
9320	0	82	
9321	0	85	
9322	0	83	
9323	0	82	
9324	0	83	
9325	0	82	
9326	0	83	
9327	0	84	
9328	0	85	
9329	0	85	
9330	0	84	
9331	0	85	
9332	0	84	
9333	0	86	
9334	0	85	
9335	0	86	
9336	0	88	
9337	0	89	
9338	0	87	
9339	0	87	
9340	0	86	
9341	0	87	
9342	0	87	
9343	0	88	
9344	0	85	
9345	0	87	
9346	0	88	
9347	0	86	
9348	0	85	
9349	0	89	
9350	0	89	
9351	0	89	
9352	0	90	
9353	0	90	
9354	0	89	
9355	0	91	
9356	0	92	
9357	0	91	
9358	0	91	
9359	0	90	
9360	0	93	
9361	0	90	
9362	0	92	
9363	0	90	
9364	0	91	
9365	0	91	
9366	0	91	
9367	0	94	
9368	0	92	
9369	0	93	
9370	0	93	
9371	0	92	
9372	0	94	
9373	0	96	
9374	0	96	
9375	0	95	
9376	0	97	
9377	0	96	
9378	0	96	
9379	0	95	
9380	0	96	
9381	0	95	
9382	0	95	
9383	0	95	
9384	0	95	
9385	0	97	
9386	0	99	
9387	0	97	
9388	0	99	
9389	0	100	
9390	0	98	
9391	0	101	
9392	0	99	
9393	0	100	
9394	0	101	
9395	0	102	
9396	0	100	
9397	0	103	
9398	0	103	
9399	0	100	
9400	0	102	
9401	0	101	
9402	0	103	
9403	0	101	
9404	0	103	
9405	0	103	
9406	0	104	
9407	0	102	
9408	0	103	
9409	0	103	
9410	0	106	
9411	0	105	
9412	0	106	
9413	0	105	
9414	0	105	
9415	0	103	
9416	0	107	
9417	0	104	
9418	0	106	
9419	0	105	
9420	0	106	
9421	0	106	
9422	0	106	
9423	0	104	
9424	0	103	
9425	0	105	
9426	0	105	
9427	0	105	
9428	0	106	
9429	0	107	
9430	0	105	
9431	0	109	
9432	0	108	
9433	0	109	
9434	0	108	
9435	0	111	
9436	0	111	
9437	0	108	
9438	0	109	
9439	0	110	
9440	0	111	
9441	0	108	
9442	0	108	
9443	0	108	
9444	0	108	
9445	0	109	
9446	0	110	
9447	0	109	
9448	0	110	
9449	0	107	
9450	0	111	
9451	0	112	
9452	0	111	
9453	0	112	
9454	0	113	
9455	0	114	
9456	0	114	
9457	0	112	
9458	0	112	
9459	0	114	
9460	0	114	
9461	0	112	
9462	0	115	
9463	0	111	
9464	0	111	
9465	0	113	
9466	0	113	
9467	0	114	
9468	0	113	
9469	0	113	
9470	0	114	
9471	0	115	
9472	0	116	
9473	0	116	
9474	0	115	
9475	0	116	
9476	0	114	
9477	0	116	
9478	0	117	
9479	0	116	
9480	0	116	
9481	0	117	
9482	0	115	
9483	0	115	
9484	0	117	
9485	0	118	
9486	0	116	
9487	0	116	
9488	0	115	
9489	0	119	
9490	0	118	
9491	0	119	
9492	0	117	
9493	0	119	
9494	0	120	
9495	0	121	
9496	0	121	
9497	0	119	
9498	0	120	
9499	0	120	
9500	0	119	
9501	0	118	
9502	0	119	
9503	0	118	
9504	0	118	
9505	0	119	
9506	0	119	
9507	0	120	
9508	0	120	
9509	0	119	
9510	0	121	
9511	0	123	
9512	0	122	
9513	0	124	
9514	0	122	
9515	0	122	
9516	0	123	
9517	0	123	
9518	0	124	
9519	0	121	
9520	0	123	
9521	0	121	
9522	0	122	
9523	0	123	
9524	0	122	
9525	0	121	
9526	0	122	
9527	0	122	
9528	0	123	
9529	0	123	
9530	0	124	
9531	0	126	
9532	0	125	
9533	0	125	
9534	0	130	
9535	0	125	
9536	0	128	
9537	0	128	
9538	0	128	
9539	0	126	
9540	0	127	
9541	0	126	
9542	0	125	
9543	0	128	
9544	0	126	
9545	0	126	
9546	0	129	
9547	0	127	
9548	0	125	
9549	0	128	
9550	0	129	
9551	0	127	
9552	0	130	
9553	0	131	
9554	0	127	
9555	0	129	
9556	0	129	
9557	0	131	
9558	0	129	
9559	0	130	
9560	0	130	
9561	0	130	
9562	0	130	
9563	0	131	
9564	0	130	
9565	0	129	
9566	0	129	
9567	0	129	
9568	0	132	
9569	0	132	
9570	0	131	
9571	0	130	
9572	0	133	
9573	0	133	
9574	0	132	
9575	0	132	
9576	0	132	
9577	0	131	
9578	0	134	
9579	0	133	
9580	0	130	
9581	0	132	
9582	0	132	
9583	0	132	
9584	0	131	
9585	0	132	
9586	0	132	
9587	0	132	
9588	0	133	
9589	0	133	
9590	0	134	
9591	0	133	
9592	0	134	
9593	0	136	
9594	0	137	
9595	0	136	
9596	0	137	
9597	0	137	
9598	0	136	
9599	0	134	
9600	0	134	
9601	0	135	
9602	0	136	
9603	0	135	
9604	0	135	
9605	0	134	
9606	0	135	
9607	0	135	
9608	0	137	
9609	0	135	
9610	0	136	
9611	0	136	
9612	0	137	
9613	0	140	
9614	0	137	
9615	0	138	
9616	0	139	
9617	0	138	
9618	0	138	
9619	0	140	
9620	0	138	
9621	0	138	
9622	0	137	
9623	0	137	
9624	0	137	
9625	0	137	
9626	0	135	
9627	0	139	
9628	0	138	
9629	0	138	
9630	0	138	
9631	0	138	
9632	0	139	
9633	0	140	
9634	0	139	
9635	0	141	
9636	0	141	
9637	0	139	
9638	0	140	
9639	0	141	
9640	0	139	
9641	0	139	
9642	0	136	
9643	0	138	
9644	0	138	
9645	0	138	
9646	0	139	
9647	0	143	
9648	0	138	
9649	0	139	
9650	0	140	
9651	0	141	
9652	0	140	
9653	0	143	
9654	0	139	
9655	0	139	
9656	0	143	
9657	0	144	
9658	0	142	
9659	0	142	
9660	0	138	
9661	0	140	
9662	0	140	
9663	0	138	
9664	0	138	
9665	0	136	
9666	0	138	
9667	0	138	
9668	0	140	
9669	0	139	
9670	0	141	
9671	0	138	
9672	0	140	
9673	0	139	
9674	0	139	
9675	0	142	
9676	0	141	
9677	0	140	
9678	0	139	
9679	0	139	
9680	0	139	
9681	0	138	
9682	0	137	
9683	0	137	
9684	0	139	
