# OpenSignals Text File Format
# {"00:07:80:F9:DE:B2": {"sensor": ["EDA"], "device name": "00:07:80:F9:DE:B2", "column": ["nSeq", "DI", "CH1"], "sync interval": 2, "time": "10:35:1.686", "comments": "", "device connection": "BTH00:07:80:F9:DE:B2", "channels": [1], "keywords": "", "mode": 0, "digital IO": [0, 1], "firmware version": 773, "device": "biosignalsplux", "position": 0, "sampling rate": 1000, "label": ["CH1"], "resolution": [16], "date": "2018-9-25", "special": [{}]}}
# EndOfHeader
0	0	651	
1	0	650	
2	0	652	
3	0	655	
4	0	656	
5	0	655	
6	0	660	
7	0	664	
8	0	668	
9	0	666	
10	0	667	
11	0	672	
12	0	671	
13	0	664	
14	0	668	
15	0	663	
16	0	665	
17	0	655	
18	0	653	
19	0	650	
20	0	652	
21	0	651	
22	0	649	
23	0	652	
24	0	654	
25	0	657	
26	0	659	
27	0	665	
28	0	659	
29	0	667	
30	0	672	
31	0	668	
32	0	672	
33	0	668	
34	0	665	
35	0	665	
36	0	662	
37	0	657	
38	0	653	
39	0	653	
40	0	652	
41	0	649	
42	0	649	
43	0	654	
44	0	653	
45	0	658	
46	0	660	
47	0	666	
48	0	667	
49	0	672	
50	0	673	
51	0	674	
52	0	673	
53	0	669	
54	0	668	
55	0	664	
56	0	660	
57	0	656	
58	0	652	
59	0	653	
60	0	649	
61	0	652	
62	0	647	
63	0	656	
64	0	658	
65	0	658	
66	0	663	
67	0	666	
68	0	669	
69	0	670	
70	0	673	
71	0	672	
72	0	671	
73	0	671	
74	0	665	
75	0	663	
76	0	664	
77	0	660	
78	0	657	
79	0	650	
80	0	648	
81	0	648	
82	0	650	
83	0	649	
84	0	656	
85	0	660	
86	0	661	
87	0	665	
88	0	670	
89	0	669	
90	0	671	
91	0	670	
92	0	670	
93	0	671	
94	0	666	
95	0	663	
96	0	661	
97	0	656	
98	0	654	
99	0	650	
100	0	648	
101	0	648	
102	0	650	
103	0	650	
104	0	654	
105	0	657	
106	0	662	
107	0	659	
108	0	666	
109	0	670	
110	0	671	
111	0	674	
112	0	672	
113	0	671	
114	0	667	
115	0	664	
116	0	663	
117	0	658	
118	0	651	
119	0	648	
120	0	650	
121	0	652	
122	0	648	
123	0	654	
124	0	653	
125	0	658	
126	0	660	
127	0	666	
128	0	668	
129	0	669	
130	0	668	
131	0	674	
132	0	669	
133	0	667	
134	0	666	
135	0	665	
136	0	661	
137	0	657	
138	0	653	
139	0	648	
140	0	655	
141	0	649	
142	0	647	
143	0	651	
144	0	655	
145	0	657	
146	0	657	
147	0	660	
148	0	665	
149	0	662	
150	0	673	
151	0	674	
152	0	672	
153	0	668	
154	0	666	
155	0	660	
156	0	661	
157	0	660	
158	0	656	
159	0	652	
160	0	648	
161	0	647	
162	0	649	
163	0	650	
164	0	655	
165	0	659	
166	0	658	
167	0	664	
168	0	668	
169	0	667	
170	0	671	
171	0	670	
172	0	672	
173	0	668	
174	0	669	
175	0	669	
176	0	661	
177	0	657	
178	0	657	
179	0	647	
180	0	647	
181	0	652	
182	0	649	
183	0	654	
184	0	656	
185	0	654	
186	0	664	
187	0	665	
188	0	668	
189	0	672	
190	0	669	
191	0	672	
192	0	671	
193	0	668	
194	0	669	
195	0	664	
196	0	662	
197	0	656	
198	0	652	
199	0	649	
200	0	651	
201	0	652	
202	0	650	
203	0	653	
204	0	654	
205	0	660	
206	0	662	
207	0	661	
208	0	668	
209	0	670	
210	0	669	
211	0	669	
212	0	674	
213	0	670	
214	0	668	
215	0	666	
216	0	658	
217	0	656	
218	0	651	
219	0	651	
220	0	645	
221	0	646	
222	0	651	
223	0	650	
224	0	654	
225	0	659	
226	0	657	
227	0	664	
228	0	665	
229	0	668	
230	0	670	
231	0	668	
232	0	671	
233	0	670	
234	0	669	
235	0	664	
236	0	662	
237	0	658	
238	0	655	
239	0	650	
240	0	649	
241	0	646	
242	0	650	
243	0	651	
244	0	654	
245	0	654	
246	0	662	
247	0	666	
248	0	666	
249	0	668	
250	0	670	
251	0	673	
252	0	669	
253	0	671	
254	0	666	
255	0	663	
256	0	660	
257	0	657	
258	0	651	
259	0	650	
260	0	651	
261	0	647	
262	0	648	
263	0	653	
264	0	654	
265	0	656	
266	0	662	
267	0	662	
268	0	667	
269	0	671	
270	0	671	
271	0	670	
272	0	671	
273	0	667	
274	0	665	
275	0	664	
276	0	660	
277	0	660	
278	0	655	
279	0	651	
280	0	649	
281	0	652	
282	0	648	
283	0	648	
284	0	650	
285	0	659	
286	0	662	
287	0	664	
288	0	669	
289	0	672	
290	0	673	
291	0	672	
292	0	672	
293	0	671	
294	0	668	
295	0	665	
296	0	658	
297	0	655	
298	0	653	
299	0	656	
300	0	650	
301	0	647	
302	0	648	
303	0	652	
304	0	650	
305	0	657	
306	0	657	
307	0	662	
308	0	667	
309	0	669	
310	0	669	
311	0	673	
312	0	672	
313	0	669	
314	0	670	
315	0	660	
316	0	664	
317	0	658	
318	0	651	
319	0	651	
320	0	650	
321	0	646	
322	0	650	
323	0	652	
324	0	654	
325	0	658	
326	0	659	
327	0	663	
328	0	666	
329	0	671	
330	0	672	
331	0	671	
332	0	674	
333	0	670	
334	0	665	
335	0	661	
336	0	661	
337	0	658	
338	0	651	
339	0	653	
340	0	648	
341	0	644	
342	0	647	
343	0	649	
344	0	649	
345	0	654	
346	0	658	
347	0	662	
348	0	667	
349	0	669	
350	0	670	
351	0	671	
352	0	669	
353	0	667	
354	0	669	
355	0	666	
356	0	663	
357	0	655	
358	0	654	
359	0	650	
360	0	644	
361	0	649	
362	0	647	
363	0	653	
364	0	652	
365	0	655	
366	0	658	
367	0	661	
368	0	665	
369	0	669	
370	0	669	
371	0	671	
372	0	670	
373	0	666	
374	0	668	
375	0	664	
376	0	662	
377	0	658	
378	0	656	
379	0	653	
380	0	650	
381	0	645	
382	0	649	
383	0	653	
384	0	654	
385	0	658	
386	0	657	
387	0	665	
388	0	664	
389	0	669	
390	0	672	
391	0	668	
392	0	672	
393	0	667	
394	0	666	
395	0	663	
396	0	663	
397	0	657	
398	0	651	
399	0	654	
400	0	650	
401	0	650	
402	0	647	
403	0	651	
404	0	651	
405	0	657	
406	0	656	
407	0	663	
408	0	667	
409	0	672	
410	0	671	
411	0	672	
412	0	672	
413	0	670	
414	0	668	
415	0	666	
416	0	661	
417	0	658	
418	0	655	
419	0	651	
420	0	650	
421	0	650	
422	0	650	
423	0	653	
424	0	652	
425	0	654	
426	0	662	
427	0	664	
428	0	666	
429	0	667	
430	0	673	
431	0	673	
432	0	667	
433	0	673	
434	0	669	
435	0	667	
436	0	661	
437	0	659	
438	0	653	
439	0	646	
440	0	649	
441	0	647	
442	0	650	
443	0	650	
444	0	651	
445	0	656	
446	0	659	
447	0	663	
448	0	666	
449	0	672	
450	0	672	
451	0	673	
452	0	669	
453	0	671	
454	0	662	
455	0	665	
456	0	661	
457	0	657	
458	0	652	
459	0	650	
460	0	649	
461	0	648	
462	0	650	
463	0	652	
464	0	650	
465	0	656	
466	0	658	
467	0	662	
468	0	663	
469	0	672	
470	0	669	
471	0	672	
472	0	668	
473	0	671	
474	0	664	
475	0	665	
476	0	664	
477	0	658	
478	0	652	
479	0	652	
480	0	648	
481	0	648	
482	0	651	
483	0	648	
484	0	651	
485	0	656	
486	0	658	
487	0	662	
488	0	663	
489	0	667	
490	0	671	
491	0	670	
492	0	672	
493	0	664	
494	0	668	
495	0	667	
496	0	663	
497	0	656	
498	0	654	
499	0	653	
500	0	651	
501	0	653	
502	0	652	
503	0	650	
504	0	651	
505	0	658	
506	0	658	
507	0	661	
508	0	667	
509	0	668	
510	0	672	
511	0	673	
512	0	678	
513	0	674	
514	0	667	
515	0	663	
516	0	664	
517	0	659	
518	0	656	
519	0	654	
520	0	651	
521	0	642	
522	0	649	
523	0	650	
524	0	653	
525	0	660	
526	0	661	
527	0	661	
528	0	667	
529	0	672	
530	0	671	
531	0	670	
532	0	673	
533	0	672	
534	0	667	
535	0	666	
536	0	664	
537	0	660	
538	0	656	
539	0	652	
540	0	647	
541	0	648	
542	0	650	
543	0	651	
544	0	652	
545	0	656	
546	0	660	
547	0	664	
548	0	665	
549	0	670	
550	0	673	
551	0	672	
552	0	672	
553	0	672	
554	0	665	
555	0	663	
556	0	665	
557	0	661	
558	0	658	
559	0	650	
560	0	652	
561	0	653	
562	0	649	
563	0	653	
564	0	650	
565	0	657	
566	0	659	
567	0	662	
568	0	668	
569	0	670	
570	0	672	
571	0	672	
572	0	672	
573	0	672	
574	0	668	
575	0	668	
576	0	663	
577	0	658	
578	0	658	
579	0	649	
580	0	650	
581	0	652	
582	0	648	
583	0	653	
584	0	654	
585	0	658	
586	0	658	
587	0	663	
588	0	666	
589	0	669	
590	0	672	
591	0	672	
592	0	672	
593	0	672	
594	0	667	
595	0	665	
596	0	662	
597	0	657	
598	0	657	
599	0	653	
600	0	650	
601	0	652	
602	0	652	
603	0	653	
604	0	654	
605	0	658	
606	0	660	
607	0	662	
608	0	662	
609	0	667	
610	0	671	
611	0	669	
612	0	672	
613	0	671	
614	0	667	
615	0	666	
616	0	662	
617	0	658	
618	0	655	
619	0	657	
620	0	652	
621	0	651	
622	0	652	
623	0	648	
624	0	653	
625	0	654	
626	0	657	
627	0	659	
628	0	664	
629	0	667	
630	0	667	
631	0	670	
632	0	671	
633	0	668	
634	0	668	
635	0	665	
636	0	660	
637	0	658	
638	0	659	
639	0	654	
640	0	651	
641	0	650	
642	0	649	
643	0	653	
644	0	652	
645	0	653	
646	0	656	
647	0	660	
648	0	662	
649	0	667	
650	0	673	
651	0	670	
652	0	669	
653	0	667	
654	0	667	
655	0	663	
656	0	662	
657	0	656	
658	0	654	
659	0	659	
660	0	648	
661	0	648	
662	0	648	
663	0	647	
664	0	654	
665	0	656	
666	0	658	
667	0	661	
668	0	664	
669	0	666	
670	0	670	
671	0	671	
672	0	670	
673	0	670	
674	0	667	
675	0	667	
676	0	662	
677	0	658	
678	0	650	
679	0	651	
680	0	648	
681	0	650	
682	0	649	
683	0	648	
684	0	652	
685	0	654	
686	0	660	
687	0	660	
688	0	667	
689	0	672	
690	0	672	
691	0	667	
692	0	668	
693	0	672	
694	0	669	
695	0	664	
696	0	668	
697	0	658	
698	0	656	
699	0	649	
700	0	648	
701	0	647	
702	0	653	
703	0	649	
704	0	654	
705	0	656	
706	0	661	
707	0	664	
708	0	670	
709	0	669	
710	0	669	
711	0	674	
712	0	671	
713	0	668	
714	0	660	
715	0	664	
716	0	664	
717	0	659	
718	0	653	
719	0	650	
720	0	649	
721	0	651	
722	0	650	
723	0	644	
724	0	653	
725	0	656	
726	0	656	
727	0	659	
728	0	665	
729	0	668	
730	0	670	
731	0	669	
732	0	673	
733	0	673	
734	0	668	
735	0	666	
736	0	662	
737	0	659	
738	0	654	
739	0	649	
740	0	650	
741	0	652	
742	0	650	
743	0	648	
744	0	653	
745	0	652	
746	0	656	
747	0	664	
748	0	665	
749	0	669	
750	0	664	
751	0	674	
752	0	671	
753	0	673	
754	0	668	
755	0	664	
756	0	662	
757	0	662	
758	0	657	
759	0	652	
760	0	650	
761	0	648	
762	0	651	
763	0	649	
764	0	650	
765	0	656	
766	0	661	
767	0	661	
768	0	667	
769	0	666	
770	0	669	
771	0	671	
772	0	674	
773	0	670	
774	0	667	
775	0	664	
776	0	665	
777	0	660	
778	0	653	
779	0	655	
780	0	652	
781	0	651	
782	0	649	
783	0	649	
784	0	651	
785	0	657	
786	0	658	
787	0	659	
788	0	664	
789	0	672	
790	0	668	
791	0	673	
792	0	673	
793	0	674	
794	0	672	
795	0	667	
796	0	664	
797	0	661	
798	0	658	
799	0	651	
800	0	652	
801	0	651	
802	0	650	
803	0	650	
804	0	653	
805	0	658	
806	0	657	
807	0	662	
808	0	666	
809	0	673	
810	0	672	
811	0	671	
812	0	672	
813	0	674	
814	0	670	
815	0	665	
816	0	667	
817	0	662	
818	0	657	
819	0	654	
820	0	652	
821	0	648	
822	0	652	
823	0	647	
824	0	653	
825	0	653	
826	0	660	
827	0	660	
828	0	668	
829	0	667	
830	0	671	
831	0	671	
832	0	669	
833	0	672	
834	0	671	
835	0	665	
836	0	666	
837	0	656	
838	0	653	
839	0	654	
840	0	650	
841	0	654	
842	0	650	
843	0	654	
844	0	653	
845	0	658	
846	0	657	
847	0	663	
848	0	669	
849	0	669	
850	0	674	
851	0	674	
852	0	670	
853	0	669	
854	0	668	
855	0	664	
856	0	663	
857	0	655	
858	0	660	
859	0	650	
860	0	648	
861	0	649	
862	0	651	
863	0	652	
864	0	655	
865	0	655	
866	0	657	
867	0	664	
868	0	667	
869	0	669	
870	0	670	
871	0	671	
872	0	669	
873	0	673	
874	0	673	
875	0	667	
876	0	662	
877	0	660	
878	0	653	
879	0	652	
880	0	649	
881	0	646	
882	0	650	
883	0	650	
884	0	652	
885	0	651	
886	0	661	
887	0	659	
888	0	668	
889	0	668	
890	0	671	
891	0	673	
892	0	672	
893	0	670	
894	0	668	
895	0	668	
896	0	661	
897	0	661	
898	0	658	
899	0	655	
900	0	652	
901	0	651	
902	0	647	
903	0	650	
904	0	652	
905	0	657	
906	0	661	
907	0	662	
908	0	664	
909	0	667	
910	0	667	
911	0	671	
912	0	668	
913	0	669	
914	0	669	
915	0	667	
916	0	664	
917	0	661	
918	0	655	
919	0	653	
920	0	651	
921	0	653	
922	0	648	
923	0	648	
924	0	652	
925	0	653	
926	0	656	
927	0	662	
928	0	668	
929	0	667	
930	0	666	
931	0	672	
932	0	670	
933	0	668	
934	0	669	
935	0	667	
936	0	663	
937	0	660	
938	0	655	
939	0	652	
940	0	652	
941	0	649	
942	0	650	
943	0	650	
944	0	653	
945	0	652	
946	0	659	
947	0	661	
948	0	665	
949	0	665	
950	0	669	
951	0	671	
952	0	673	
953	0	671	
954	0	667	
955	0	669	
956	0	661	
957	0	658	
958	0	655	
959	0	656	
960	0	650	
961	0	646	
962	0	648	
963	0	646	
964	0	650	
965	0	657	
966	0	660	
967	0	661	
968	0	662	
969	0	667	
970	0	668	
971	0	668	
972	0	670	
973	0	670	
974	0	667	
975	0	665	
976	0	663	
977	0	663	
978	0	658	
979	0	650	
980	0	648	
981	0	647	
982	0	646	
983	0	649	
984	0	652	
985	0	653	
986	0	657	
987	0	661	
988	0	667	
989	0	668	
990	0	670	
991	0	671	
992	0	668	
993	0	668	
994	0	667	
995	0	663	
996	0	663	
997	0	656	
998	0	653	
999	0	652	
1000	0	648	
1001	0	648	
1002	0	647	
1003	0	649	
1004	0	646	
1005	0	654	
1006	0	656	
1007	0	661	
1008	0	665	
1009	0	665	
1010	0	665	
1011	0	672	
1012	0	672	
1013	0	672	
1014	0	667	
1015	0	665	
1016	0	662	
1017	0	661	
1018	0	653	
1019	0	652	
1020	0	648	
1021	0	646	
1022	0	650	
1023	0	649	
1024	0	651	
1025	0	653	
1026	0	655	
1027	0	660	
1028	0	666	
1029	0	666	
1030	0	670	
1031	0	671	
1032	0	669	
1033	0	673	
1034	0	667	
1035	0	665	
1036	0	662	
1037	0	661	
1038	0	655	
1039	0	650	
1040	0	646	
1041	0	651	
1042	0	652	
1043	0	649	
1044	0	653	
1045	0	653	
1046	0	659	
1047	0	663	
1048	0	666	
1049	0	668	
1050	0	666	
1051	0	671	
1052	0	672	
1053	0	670	
1054	0	674	
1055	0	668	
1056	0	667	
1057	0	662	
1058	0	656	
1059	0	652	
1060	0	652	
1061	0	649	
1062	0	643	
1063	0	650	
1064	0	651	
1065	0	653	
1066	0	660	
1067	0	662	
1068	0	667	
1069	0	668	
1070	0	669	
1071	0	671	
1072	0	672	
1073	0	671	
1074	0	668	
1075	0	669	
1076	0	665	
1077	0	659	
1078	0	656	
1079	0	652	
1080	0	654	
1081	0	643	
1082	0	647	
1083	0	651	
1084	0	651	
1085	0	656	
1086	0	657	
1087	0	663	
1088	0	663	
1089	0	666	
1090	0	668	
1091	0	673	
1092	0	672	
1093	0	670	
1094	0	670	
1095	0	664	
1096	0	661	
1097	0	660	
1098	0	658	
1099	0	650	
1100	0	650	
1101	0	649	
1102	0	649	
1103	0	647	
1104	0	651	
1105	0	652	
1106	0	657	
1107	0	661	
1108	0	664	
1109	0	667	
1110	0	665	
1111	0	668	
1112	0	667	
1113	0	672	
1114	0	669	
1115	0	666	
1116	0	666	
1117	0	662	
1118	0	657	
1119	0	652	
1120	0	649	
1121	0	653	
1122	0	653	
1123	0	652	
1124	0	651	
1125	0	654	
1126	0	659	
1127	0	661	
1128	0	664	
1129	0	669	
1130	0	670	
1131	0	673	
1132	0	670	
1133	0	671	
1134	0	671	
1135	0	669	
1136	0	664	
1137	0	662	
1138	0	656	
1139	0	655	
1140	0	654	
1141	0	652	
1142	0	648	
1143	0	653	
1144	0	652	
1145	0	654	
1146	0	658	
1147	0	663	
1148	0	663	
1149	0	670	
1150	0	670	
1151	0	671	
1152	0	674	
1153	0	671	
1154	0	672	
1155	0	668	
1156	0	661	
1157	0	660	
1158	0	656	
1159	0	653	
1160	0	651	
1161	0	649	
1162	0	648	
1163	0	649	
1164	0	651	
1165	0	657	
1166	0	659	
1167	0	660	
1168	0	662	
1169	0	666	
1170	0	672	
1171	0	669	
1172	0	674	
1173	0	673	
1174	0	668	
1175	0	664	
1176	0	662	
1177	0	659	
1178	0	654	
1179	0	654	
1180	0	651	
1181	0	650	
1182	0	649	
1183	0	650	
1184	0	652	
1185	0	656	
1186	0	658	
1187	0	662	
1188	0	661	
1189	0	669	
1190	0	669	
1191	0	668	
1192	0	670	
1193	0	667	
1194	0	669	
1195	0	661	
1196	0	661	
1197	0	661	
1198	0	653	
1199	0	647	
1200	0	651	
1201	0	646	
1202	0	649	
1203	0	651	
1204	0	650	
1205	0	652	
1206	0	657	
1207	0	660	
1208	0	664	
1209	0	669	
1210	0	669	
1211	0	674	
1212	0	669	
1213	0	670	
1214	0	667	
1215	0	666	
1216	0	663	
1217	0	658	
1218	0	661	
1219	0	654	
1220	0	650	
1221	0	648	
1222	0	649	
1223	0	650	
1224	0	652	
1225	0	653	
1226	0	660	
1227	0	659	
1228	0	665	
1229	0	669	
1230	0	670	
1231	0	668	
1232	0	670	
1233	0	671	
1234	0	671	
1235	0	664	
1236	0	664	
1237	0	659	
1238	0	655	
1239	0	653	
1240	0	651	
1241	0	648	
1242	0	647	
1243	0	648	
1244	0	651	
1245	0	653	
1246	0	657	
1247	0	660	
1248	0	665	
1249	0	667	
1250	0	666	
1251	0	674	
1252	0	670	
1253	0	672	
1254	0	669	
1255	0	665	
1256	0	664	
1257	0	659	
1258	0	658	
1259	0	654	
1260	0	659	
1261	0	650	
1262	0	646	
1263	0	647	
1264	0	652	
1265	0	656	
1266	0	660	
1267	0	660	
1268	0	666	
1269	0	671	
1270	0	670	
1271	0	672	
1272	0	670	
1273	0	669	
1274	0	672	
1275	0	664	
1276	0	665	
1277	0	660	
1278	0	661	
1279	0	655	
1280	0	651	
1281	0	648	
1282	0	645	
1283	0	649	
1284	0	650	
1285	0	651	
1286	0	660	
1287	0	657	
1288	0	665	
1289	0	669	
1290	0	671	
1291	0	671	
1292	0	671	
1293	0	668	
1294	0	667	
1295	0	666	
1296	0	661	
1297	0	658	
1298	0	658	
1299	0	654	
1300	0	649	
1301	0	649	
1302	0	649	
1303	0	648	
1304	0	654	
1305	0	655	
1306	0	658	
1307	0	660	
1308	0	668	
1309	0	666	
1310	0	670	
1311	0	672	
1312	0	669	
1313	0	673	
1314	0	669	
1315	0	666	
1316	0	663	
1317	0	660	
1318	0	656	
1319	0	654	
1320	0	648	
1321	0	651	
1322	0	648	
1323	0	652	
1324	0	653	
1325	0	654	
1326	0	667	
1327	0	659	
1328	0	663	
1329	0	667	
1330	0	674	
1331	0	671	
1332	0	671	
1333	0	671	
1334	0	669	
1335	0	669	
1336	0	658	
1337	0	660	
1338	0	660	
1339	0	654	
1340	0	650	
1341	0	648	
1342	0	651	
1343	0	648	
1344	0	654	
1345	0	657	
1346	0	657	
1347	0	660	
1348	0	668	
1349	0	667	
1350	0	671	
1351	0	671	
1352	0	671	
1353	0	670	
1354	0	669	
1355	0	666	
1356	0	663	
1357	0	658	
1358	0	657	
1359	0	658	
1360	0	653	
1361	0	649	
1362	0	647	
1363	0	650	
1364	0	655	
1365	0	655	
1366	0	656	
1367	0	661	
1368	0	665	
1369	0	668	
1370	0	668	
1371	0	672	
1372	0	674	
1373	0	672	
1374	0	669	
1375	0	668	
1376	0	663	
1377	0	658	
1378	0	660	
1379	0	652	
1380	0	653	
1381	0	651	
1382	0	649	
1383	0	651	
1384	0	649	
1385	0	654	
1386	0	660	
1387	0	660	
1388	0	665	
1389	0	670	
1390	0	668	
1391	0	671	
1392	0	671	
1393	0	671	
1394	0	668	
1395	0	664	
1396	0	664	
1397	0	660	
1398	0	659	
1399	0	653	
1400	0	654	
1401	0	650	
1402	0	648	
1403	0	647	
1404	0	653	
1405	0	657	
1406	0	658	
1407	0	662	
1408	0	660	
1409	0	668	
1410	0	664	
1411	0	673	
1412	0	674	
1413	0	671	
1414	0	669	
1415	0	669	
1416	0	663	
1417	0	662	
1418	0	656	
1419	0	653	
1420	0	648	
1421	0	654	
1422	0	652	
1423	0	649	
1424	0	649	
1425	0	654	
1426	0	655	
1427	0	661	
1428	0	665	
1429	0	665	
1430	0	673	
1431	0	668	
1432	0	674	
1433	0	674	
1434	0	670	
1435	0	669	
1436	0	664	
1437	0	660	
1438	0	660	
1439	0	654	
1440	0	648	
1441	0	649	
1442	0	651	
1443	0	652	
1444	0	652	
1445	0	656	
1446	0	658	
1447	0	659	
1448	0	663	
1449	0	667	
1450	0	668	
1451	0	670	
1452	0	671	
1453	0	667	
1454	0	668	
1455	0	665	
1456	0	666	
1457	0	659	
1458	0	657	
1459	0	653	
1460	0	650	
1461	0	648	
1462	0	647	
1463	0	651	
1464	0	650	
1465	0	652	
1466	0	657	
1467	0	661	
1468	0	665	
1469	0	668	
1470	0	670	
1471	0	669	
1472	0	671	
1473	0	671	
1474	0	669	
1475	0	666	
1476	0	667	
1477	0	659	
1478	0	655	
1479	0	656	
1480	0	650	
1481	0	646	
1482	0	651	
1483	0	651	
1484	0	653	
1485	0	654	
1486	0	658	
1487	0	665	
1488	0	662	
1489	0	668	
1490	0	669	
1491	0	673	
1492	0	670	
1493	0	671	
1494	0	664	
1495	0	669	
1496	0	665	
1497	0	664	
1498	0	660	
1499	0	656	
1500	0	653	
1501	0	651	
1502	0	649	
1503	0	652	
1504	0	652	
1505	0	657	
1506	0	658	
1507	0	660	
1508	0	663	
1509	0	667	
1510	0	671	
1511	0	672	
1512	0	672	
1513	0	672	
1514	0	671	
1515	0	660	
1516	0	667	
1517	0	662	
1518	0	653	
1519	0	653	
1520	0	651	
1521	0	652	
1522	0	649	
1523	0	651	
1524	0	649	
1525	0	654	
1526	0	659	
1527	0	664	
1528	0	663	
1529	0	667	
1530	0	671	
1531	0	674	
1532	0	673	
1533	0	668	
1534	0	670	
1535	0	666	
1536	0	669	
1537	0	665	
1538	0	658	
1539	0	652	
1540	0	651	
1541	0	649	
1542	0	648	
1543	0	652	
1544	0	653	
1545	0	657	
1546	0	659	
1547	0	661	
1548	0	666	
1549	0	668	
1550	0	672	
1551	0	666	
1552	0	676	
1553	0	672	
1554	0	670	
1555	0	668	
1556	0	665	
1557	0	661	
1558	0	658	
1559	0	657	
1560	0	653	
1561	0	648	
1562	0	652	
1563	0	651	
1564	0	649	
1565	0	660	
1566	0	660	
1567	0	660	
1568	0	664	
1569	0	668	
1570	0	670	
1571	0	672	
1572	0	673	
1573	0	670	
1574	0	673	
1575	0	668	
1576	0	666	
1577	0	663	
1578	0	660	
1579	0	653	
1580	0	653	
1581	0	651	
1582	0	652	
1583	0	648	
1584	0	652	
1585	0	652	
1586	0	657	
1587	0	663	
1588	0	667	
1589	0	663	
1590	0	671	
1591	0	672	
1592	0	672	
1593	0	672	
1594	0	669	
1595	0	666	
1596	0	664	
1597	0	661	
1598	0	657	
1599	0	655	
1600	0	652	
1601	0	652	
1602	0	651	
1603	0	649	
1604	0	648	
1605	0	656	
1606	0	657	
1607	0	664	
1608	0	663	
1609	0	669	
1610	0	672	
1611	0	673	
1612	0	674	
1613	0	674	
1614	0	672	
1615	0	665	
1616	0	664	
1617	0	660	
1618	0	656	
1619	0	656	
1620	0	654	
1621	0	650	
1622	0	648	
1623	0	653	
1624	0	654	
1625	0	655	
1626	0	657	
1627	0	664	
1628	0	663	
1629	0	668	
1630	0	667	
1631	0	672	
1632	0	669	
1633	0	674	
1634	0	669	
1635	0	667	
1636	0	665	
1637	0	660	
1638	0	657	
1639	0	654	
1640	0	649	
1641	0	650	
1642	0	651	
1643	0	648	
1644	0	652	
1645	0	653	
1646	0	656	
1647	0	661	
1648	0	666	
1649	0	667	
1650	0	667	
1651	0	670	
1652	0	673	
1653	0	670	
1654	0	668	
1655	0	668	
1656	0	662	
1657	0	654	
1658	0	656	
1659	0	653	
1660	0	650	
1661	0	646	
1662	0	650	
1663	0	647	
1664	0	651	
1665	0	654	
1666	0	658	
1667	0	660	
1668	0	660	
1669	0	663	
1670	0	668	
1671	0	673	
1672	0	670	
1673	0	670	
1674	0	669	
1675	0	667	
1676	0	663	
1677	0	659	
1678	0	656	
1679	0	655	
1680	0	650	
1681	0	650	
1682	0	649	
1683	0	649	
1684	0	652	
1685	0	654	
1686	0	660	
1687	0	660	
1688	0	661	
1689	0	667	
1690	0	662	
1691	0	671	
1692	0	671	
1693	0	669	
1694	0	668	
1695	0	666	
1696	0	663	
1697	0	661	
1698	0	656	
1699	0	653	
1700	0	652	
1701	0	650	
1702	0	649	
1703	0	651	
1704	0	648	
1705	0	658	
1706	0	653	
1707	0	660	
1708	0	662	
1709	0	669	
1710	0	670	
1711	0	673	
1712	0	673	
1713	0	668	
1714	0	669	
1715	0	667	
1716	0	667	
1717	0	662	
1718	0	657	
1719	0	654	
1720	0	650	
1721	0	651	
1722	0	649	
1723	0	650	
1724	0	653	
1725	0	651	
1726	0	659	
1727	0	658	
1728	0	665	
1729	0	668	
1730	0	669	
1731	0	671	
1732	0	674	
1733	0	673	
1734	0	670	
1735	0	667	
1736	0	666	
1737	0	662	
1738	0	657	
1739	0	654	
1740	0	653	
1741	0	649	
1742	0	648	
1743	0	650	
1744	0	650	
1745	0	656	
1746	0	661	
1747	0	655	
1748	0	663	
1749	0	667	
1750	0	671	
1751	0	668	
1752	0	674	
1753	0	674	
1754	0	671	
1755	0	664	
1756	0	664	
1757	0	661	
1758	0	659	
1759	0	653	
1760	0	652	
1761	0	651	
1762	0	648	
1763	0	647	
1764	0	654	
1765	0	654	
1766	0	657	
1767	0	660	
1768	0	660	
1769	0	665	
1770	0	666	
1771	0	673	
1772	0	670	
1773	0	670	
1774	0	668	
1775	0	671	
1776	0	659	
1777	0	661	
1778	0	656	
1779	0	656	
1780	0	648	
1781	0	653	
1782	0	651	
1783	0	650	
1784	0	649	
1785	0	656	
1786	0	657	
1787	0	659	
1788	0	661	
1789	0	667	
1790	0	670	
1791	0	675	
1792	0	673	
1793	0	673	
1794	0	669	
1795	0	667	
1796	0	668	
1797	0	661	
1798	0	656	
1799	0	656	
1800	0	651	
1801	0	652	
1802	0	652	
1803	0	654	
1804	0	653	
1805	0	654	
1806	0	657	
1807	0	662	
1808	0	662	
1809	0	670	
1810	0	669	
1811	0	671	
1812	0	671	
1813	0	669	
1814	0	672	
1815	0	668	
1816	0	669	
1817	0	659	
1818	0	656	
1819	0	653	
1820	0	649	
1821	0	654	
1822	0	652	
1823	0	652	
1824	0	649	
1825	0	653	
1826	0	661	
1827	0	660	
1828	0	662	
1829	0	668	
1830	0	671	
1831	0	672	
1832	0	674	
1833	0	672	
1834	0	674	
1835	0	670	
1836	0	664	
1837	0	664	
1838	0	659	
1839	0	656	
1840	0	652	
1841	0	654	
1842	0	652	
1843	0	651	
1844	0	652	
1845	0	662	
1846	0	665	
1847	0	664	
1848	0	667	
1849	0	667	
1850	0	671	
1851	0	674	
1852	0	672	
1853	0	673	
1854	0	671	
1855	0	670	
1856	0	664	
1857	0	660	
1858	0	660	
1859	0	657	
1860	0	653	
1861	0	651	
1862	0	647	
1863	0	648	
1864	0	653	
1865	0	657	
1866	0	658	
1867	0	661	
1868	0	662	
1869	0	667	
1870	0	670	
1871	0	673	
1872	0	674	
1873	0	672	
1874	0	670	
1875	0	673	
1876	0	666	
1877	0	662	
1878	0	661	
1879	0	656	
1880	0	654	
1881	0	653	
1882	0	652	
1883	0	650	
1884	0	652	
1885	0	653	
1886	0	655	
1887	0	663	
1888	0	663	
1889	0	669	
1890	0	671	
1891	0	673	
1892	0	670	
1893	0	672	
1894	0	672	
1895	0	667	
1896	0	664	
1897	0	658	
1898	0	657	
1899	0	658	
1900	0	650	
1901	0	653	
1902	0	651	
1903	0	655	
1904	0	653	
1905	0	653	
1906	0	656	
1907	0	658	
1908	0	664	
1909	0	665	
1910	0	668	
1911	0	667	
1912	0	672	
1913	0	671	
1914	0	673	
1915	0	669	
1916	0	666	
1917	0	664	
1918	0	660	
1919	0	658	
1920	0	653	
1921	0	650	
1922	0	652	
1923	0	648	
1924	0	650	
1925	0	652	
1926	0	656	
1927	0	659	
1928	0	666	
1929	0	665	
1930	0	672	
1931	0	672	
1932	0	670	
1933	0	673	
1934	0	672	
1935	0	672	
1936	0	665	
1937	0	664	
1938	0	658	
1939	0	657	
1940	0	652	
1941	0	653	
1942	0	651	
1943	0	652	
1944	0	650	
1945	0	654	
1946	0	658	
1947	0	661	
1948	0	664	
1949	0	666	
1950	0	670	
1951	0	670	
1952	0	674	
1953	0	672	
1954	0	672	
1955	0	670	
1956	0	667	
1957	0	664	
1958	0	659	
1959	0	656	
1960	0	652	
1961	0	652	
1962	0	649	
1963	0	650	
1964	0	653	
1965	0	654	
1966	0	656	
1967	0	661	
1968	0	661	
1969	0	664	
1970	0	672	
1971	0	669	
1972	0	668	
1973	0	672	
1974	0	673	
1975	0	664	
1976	0	665	
1977	0	661	
1978	0	655	
1979	0	655	
1980	0	652	
1981	0	649	
1982	0	648	
1983	0	648	
1984	0	649	
1985	0	652	
1986	0	658	
1987	0	660	
1988	0	662	
1989	0	669	
1990	0	669	
1991	0	668	
1992	0	674	
1993	0	672	
1994	0	671	
1995	0	669	
1996	0	665	
1997	0	663	
1998	0	658	
1999	0	660	
2000	0	656	
2001	0	649	
2002	0	647	
2003	0	650	
2004	0	652	
2005	0	658	
2006	0	655	
2007	0	656	
2008	0	661	
2009	0	666	
2010	0	667	
2011	0	671	
2012	0	674	
2013	0	669	
2014	0	671	
2015	0	669	
2016	0	668	
2017	0	664	
2018	0	666	
2019	0	658	
2020	0	656	
2021	0	652	
2022	0	649	
2023	0	650	
2024	0	649	
2025	0	653	
2026	0	652	
2027	0	659	
2028	0	665	
2029	0	670	
2030	0	671	
2031	0	668	
2032	0	668	
2033	0	670	
2034	0	671	
2035	0	666	
2036	0	666	
2037	0	664	
2038	0	659	
2039	0	656	
2040	0	650	
2041	0	651	
2042	0	650	
2043	0	652	
2044	0	642	
2045	0	650	
2046	0	657	
2047	0	660	
2048	0	664	
2049	0	666	
2050	0	670	
2051	0	673	
2052	0	672	
2053	0	673	
2054	0	670	
2055	0	667	
2056	0	666	
2057	0	661	
2058	0	660	
2059	0	658	
2060	0	648	
2061	0	652	
2062	0	647	
2063	0	653	
2064	0	650	
2065	0	654	
2066	0	657	
2067	0	657	
2068	0	662	
2069	0	667	
2070	0	670	
2071	0	670	
2072	0	675	
2073	0	673	
2074	0	671	
2075	0	668	
2076	0	663	
2077	0	662	
2078	0	659	
2079	0	656	
2080	0	652	
2081	0	650	
2082	0	649	
2083	0	652	
2084	0	652	
2085	0	653	
2086	0	653	
2087	0	660	
2088	0	664	
2089	0	667	
2090	0	668	
2091	0	672	
2092	0	672	
2093	0	672	
2094	0	672	
2095	0	669	
2096	0	664	
2097	0	660	
2098	0	660	
2099	0	653	
2100	0	648	
2101	0	654	
2102	0	648	
2103	0	647	
2104	0	651	
2105	0	651	
2106	0	656	
2107	0	659	
2108	0	666	
2109	0	664	
2110	0	673	
2111	0	669	
2112	0	671	
2113	0	675	
2114	0	669	
2115	0	666	
2116	0	663	
2117	0	664	
2118	0	660	
2119	0	653	
2120	0	652	
2121	0	648	
2122	0	648	
2123	0	647	
2124	0	649	
2125	0	651	
2126	0	654	
2127	0	658	
2128	0	662	
2129	0	664	
2130	0	670	
2131	0	670	
2132	0	671	
2133	0	670	
2134	0	671	
2135	0	671	
2136	0	665	
2137	0	664	
2138	0	661	
2139	0	660	
2140	0	654	
2141	0	651	
2142	0	651	
2143	0	651	
2144	0	651	
2145	0	651	
2146	0	656	
2147	0	659	
2148	0	660	
2149	0	666	
2150	0	669	
2151	0	677	
2152	0	673	
2153	0	674	
2154	0	673	
2155	0	670	
2156	0	667	
2157	0	666	
2158	0	657	
2159	0	656	
2160	0	654	
2161	0	650	
2162	0	647	
2163	0	647	
2164	0	651	
2165	0	655	
2166	0	657	
2167	0	661	
2168	0	664	
2169	0	668	
2170	0	670	
2171	0	670	
2172	0	674	
2173	0	673	
2174	0	670	
2175	0	670	
2176	0	669	
2177	0	664	
2178	0	660	
2179	0	656	
2180	0	650	
2181	0	656	
2182	0	652	
2183	0	651	
2184	0	651	
2185	0	658	
2186	0	656	
2187	0	661	
2188	0	666	
2189	0	665	
2190	0	668	
2191	0	672	
2192	0	670	
2193	0	670	
2194	0	669	
2195	0	669	
2196	0	666	
2197	0	665	
2198	0	665	
2199	0	664	
2200	0	652	
2201	0	652	
2202	0	648	
2203	0	651	
2204	0	652	
2205	0	653	
2206	0	656	
2207	0	661	
2208	0	663	
2209	0	663	
2210	0	670	
2211	0	672	
2212	0	674	
2213	0	671	
2214	0	673	
2215	0	666	
2216	0	668	
2217	0	666	
2218	0	659	
2219	0	657	
2220	0	651	
2221	0	649	
2222	0	652	
2223	0	653	
2224	0	651	
2225	0	656	
2226	0	656	
2227	0	661	
2228	0	660	
2229	0	669	
2230	0	669	
2231	0	668	
2232	0	669	
2233	0	670	
2234	0	674	
2235	0	672	
2236	0	668	
2237	0	664	
2238	0	659	
2239	0	657	
2240	0	651	
2241	0	650	
2242	0	649	
2243	0	651	
2244	0	650	
2245	0	658	
2246	0	658	
2247	0	660	
2248	0	664	
2249	0	664	
2250	0	667	
2251	0	672	
2252	0	670	
2253	0	670	
2254	0	671	
2255	0	668	
2256	0	668	
2257	0	666	
2258	0	660	
2259	0	657	
2260	0	650	
2261	0	655	
2262	0	649	
2263	0	650	
2264	0	651	
2265	0	657	
2266	0	657	
2267	0	657	
2268	0	664	
2269	0	667	
2270	0	673	
2271	0	671	
2272	0	670	
2273	0	671	
2274	0	671	
2275	0	668	
2276	0	667	
2277	0	664	
2278	0	661	
2279	0	658	
2280	0	657	
2281	0	651	
2282	0	646	
2283	0	650	
2284	0	648	
2285	0	653	
2286	0	655	
2287	0	659	
2288	0	661	
2289	0	670	
2290	0	669	
2291	0	667	
2292	0	671	
2293	0	673	
2294	0	674	
2295	0	669	
2296	0	673	
2297	0	662	
2298	0	660	
2299	0	658	
2300	0	655	
2301	0	653	
2302	0	648	
2303	0	651	
2304	0	647	
2305	0	652	
2306	0	656	
2307	0	657	
2308	0	666	
2309	0	668	
2310	0	670	
2311	0	670	
2312	0	673	
2313	0	674	
2314	0	673	
2315	0	670	
2316	0	665	
2317	0	658	
2318	0	662	
2319	0	656	
2320	0	652	
2321	0	656	
2322	0	648	
2323	0	649	
2324	0	648	
2325	0	652	
2326	0	657	
2327	0	660	
2328	0	662	
2329	0	665	
2330	0	671	
2331	0	672	
2332	0	673	
2333	0	673	
2334	0	673	
2335	0	671	
2336	0	666	
2337	0	664	
2338	0	657	
2339	0	655	
2340	0	653	
2341	0	652	
2342	0	648	
2343	0	650	
2344	0	656	
2345	0	651	
2346	0	653	
2347	0	660	
2348	0	666	
2349	0	671	
2350	0	668	
2351	0	671	
2352	0	672	
2353	0	673	
2354	0	672	
2355	0	670	
2356	0	669	
2357	0	664	
2358	0	658	
2359	0	659	
2360	0	653	
2361	0	650	
2362	0	647	
2363	0	650	
2364	0	651	
2365	0	653	
2366	0	657	
2367	0	662	
2368	0	664	
2369	0	662	
2370	0	669	
2371	0	665	
2372	0	673	
2373	0	672	
2374	0	671	
2375	0	669	
2376	0	667	
2377	0	665	
2378	0	666	
2379	0	659	
2380	0	654	
2381	0	652	
2382	0	649	
2383	0	649	
2384	0	649	
2385	0	656	
2386	0	657	
2387	0	653	
2388	0	661	
2389	0	668	
2390	0	666	
2391	0	670	
2392	0	671	
2393	0	672	
2394	0	671	
2395	0	664	
2396	0	664	
2397	0	663	
2398	0	658	
2399	0	657	
2400	0	654	
2401	0	651	
2402	0	651	
2403	0	649	
2404	0	647	
2405	0	653	
2406	0	655	
2407	0	662	
2408	0	662	
2409	0	666	
2410	0	666	
2411	0	673	
2412	0	673	
2413	0	669	
2414	0	670	
2415	0	668	
2416	0	663	
2417	0	658	
2418	0	660	
2419	0	656	
2420	0	656	
2421	0	650	
2422	0	649	
2423	0	650	
2424	0	652	
2425	0	651	
2426	0	658	
2427	0	660	
2428	0	662	
2429	0	667	
2430	0	667	
2431	0	671	
2432	0	672	
2433	0	674	
2434	0	672	
2435	0	666	
2436	0	665	
2437	0	665	
2438	0	659	
2439	0	657	
2440	0	657	
2441	0	650	
2442	0	653	
2443	0	650	
2444	0	651	
2445	0	652	
2446	0	656	
2447	0	662	
2448	0	661	
2449	0	668	
2450	0	669	
2451	0	668	
2452	0	669	
2453	0	670	
2454	0	672	
2455	0	671	
2456	0	668	
2457	0	661	
2458	0	661	
2459	0	656	
2460	0	657	
2461	0	652	
2462	0	650	
2463	0	651	
2464	0	650	
2465	0	652	
2466	0	657	
2467	0	662	
2468	0	666	
2469	0	668	
2470	0	671	
2471	0	674	
2472	0	673	
2473	0	668	
2474	0	671	
2475	0	673	
2476	0	666	
2477	0	664	
2478	0	662	
2479	0	657	
2480	0	657	
2481	0	652	
2482	0	652	
2483	0	651	
2484	0	654	
2485	0	654	
2486	0	653	
2487	0	656	
2488	0	657	
2489	0	666	
2490	0	670	
2491	0	673	
2492	0	674	
2493	0	672	
2494	0	672	
2495	0	673	
2496	0	668	
2497	0	661	
2498	0	660	
2499	0	658	
2500	0	652	
2501	0	653	
2502	0	651	
2503	0	654	
2504	0	653	
2505	0	652	
2506	0	656	
2507	0	658	
2508	0	663	
2509	0	665	
2510	0	667	
2511	0	671	
2512	0	673	
2513	0	674	
2514	0	671	
2515	0	669	
2516	0	670	
2517	0	665	
2518	0	663	
2519	0	661	
2520	0	655	
2521	0	652	
2522	0	650	
2523	0	649	
2524	0	656	
2525	0	657	
2526	0	656	
2527	0	660	
2528	0	663	
2529	0	667	
2530	0	669	
2531	0	669	
2532	0	671	
2533	0	674	
2534	0	673	
2535	0	673	
2536	0	665	
2537	0	665	
2538	0	665	
2539	0	658	
2540	0	656	
2541	0	658	
2542	0	650	
2543	0	648	
2544	0	652	
2545	0	663	
2546	0	655	
2547	0	661	
2548	0	665	
2549	0	666	
2550	0	671	
2551	0	674	
2552	0	673	
2553	0	670	
2554	0	675	
2555	0	673	
2556	0	672	
2557	0	667	
2558	0	664	
2559	0	657	
2560	0	656	
2561	0	652	
2562	0	657	
2563	0	650	
2564	0	650	
2565	0	653	
2566	0	656	
2567	0	659	
2568	0	664	
2569	0	664	
2570	0	667	
2571	0	669	
2572	0	673	
2573	0	671	
2574	0	666	
2575	0	671	
2576	0	668	
2577	0	661	
2578	0	665	
2579	0	658	
2580	0	656	
2581	0	653	
2582	0	649	
2583	0	648	
2584	0	655	
2585	0	655	
2586	0	654	
2587	0	659	
2588	0	663	
2589	0	666	
2590	0	667	
2591	0	670	
2592	0	677	
2593	0	671	
2594	0	672	
2595	0	670	
2596	0	673	
2597	0	664	
2598	0	664	
2599	0	660	
2600	0	655	
2601	0	650	
2602	0	652	
2603	0	652	
2604	0	655	
2605	0	656	
2606	0	656	
2607	0	658	
2608	0	663	
2609	0	664	
2610	0	669	
2611	0	672	
2612	0	671	
2613	0	672	
2614	0	673	
2615	0	669	
2616	0	668	
2617	0	665	
2618	0	662	
2619	0	660	
2620	0	653	
2621	0	656	
2622	0	652	
2623	0	650	
2624	0	651	
2625	0	656	
2626	0	655	
2627	0	660	
2628	0	662	
2629	0	664	
2630	0	670	
2631	0	675	
2632	0	674	
2633	0	673	
2634	0	672	
2635	0	671	
2636	0	666	
2637	0	660	
2638	0	661	
2639	0	660	
2640	0	653	
2641	0	654	
2642	0	649	
2643	0	646	
2644	0	652	
2645	0	654	
2646	0	653	
2647	0	660	
2648	0	661	
2649	0	664	
2650	0	670	
2651	0	670	
2652	0	673	
2653	0	674	
2654	0	668	
2655	0	673	
2656	0	667	
2657	0	665	
2658	0	659	
2659	0	655	
2660	0	655	
2661	0	650	
2662	0	651	
2663	0	650	
2664	0	650	
2665	0	651	
2666	0	654	
2667	0	659	
2668	0	661	
2669	0	664	
2670	0	665	
2671	0	671	
2672	0	668	
2673	0	672	
2674	0	672	
2675	0	671	
2676	0	664	
2677	0	663	
2678	0	659	
2679	0	655	
2680	0	655	
2681	0	650	
2682	0	649	
2683	0	648	
2684	0	648	
2685	0	653	
2686	0	653	
2687	0	657	
2688	0	660	
2689	0	663	
2690	0	668	
2691	0	670	
2692	0	672	
2693	0	670	
2694	0	672	
2695	0	673	
2696	0	670	
2697	0	662	
2698	0	661	
2699	0	659	
2700	0	655	
2701	0	651	
2702	0	651	
2703	0	651	
2704	0	649	
2705	0	651	
2706	0	659	
2707	0	658	
2708	0	660	
2709	0	665	
2710	0	671	
2711	0	668	
2712	0	672	
2713	0	671	
2714	0	670	
2715	0	669	
2716	0	666	
2717	0	664	
2718	0	661	
2719	0	657	
2720	0	655	
2721	0	646	
2722	0	645	
2723	0	648	
2724	0	653	
2725	0	653	
2726	0	653	
2727	0	659	
2728	0	662	
2729	0	665	
2730	0	667	
2731	0	666	
2732	0	671	
2733	0	672	
2734	0	673	
2735	0	673	
2736	0	669	
2737	0	660	
2738	0	662	
2739	0	652	
2740	0	656	
2741	0	653	
2742	0	649	
2743	0	651	
2744	0	651	
2745	0	652	
2746	0	654	
2747	0	659	
2748	0	663	
2749	0	667	
2750	0	668	
2751	0	670	
2752	0	669	
2753	0	672	
2754	0	671	
2755	0	670	
2756	0	668	
2757	0	663	
2758	0	656	
2759	0	659	
2760	0	655	
2761	0	655	
2762	0	650	
2763	0	653	
2764	0	647	
2765	0	651	
2766	0	656	
2767	0	659	
2768	0	658	
2769	0	668	
2770	0	667	
2771	0	673	
2772	0	673	
2773	0	672	
2774	0	669	
2775	0	670	
2776	0	670	
2777	0	663	
2778	0	661	
2779	0	655	
2780	0	655	
2781	0	654	
2782	0	654	
2783	0	650	
2784	0	648	
2785	0	648	
2786	0	656	
2787	0	657	
2788	0	660	
2789	0	666	
2790	0	671	
2791	0	673	
2792	0	674	
2793	0	674	
2794	0	673	
2795	0	670	
2796	0	668	
2797	0	669	
2798	0	661	
2799	0	653	
2800	0	654	
2801	0	651	
2802	0	653	
2803	0	648	
2804	0	653	
2805	0	653	
2806	0	657	
2807	0	660	
2808	0	660	
2809	0	668	
2810	0	671	
2811	0	670	
2812	0	673	
2813	0	674	
2814	0	674	
2815	0	671	
2816	0	668	
2817	0	662	
2818	0	661	
2819	0	657	
2820	0	651	
2821	0	651	
2822	0	649	
2823	0	653	
2824	0	653	
2825	0	653	
2826	0	654	
2827	0	657	
2828	0	660	
2829	0	662	
2830	0	669	
2831	0	671	
2832	0	672	
2833	0	671	
2834	0	674	
2835	0	668	
2836	0	670	
2837	0	665	
2838	0	660	
2839	0	659	
2840	0	654	
2841	0	653	
2842	0	652	
2843	0	649	
2844	0	648	
2845	0	652	
2846	0	655	
2847	0	658	
2848	0	660	
2849	0	663	
2850	0	667	
2851	0	670	
2852	0	674	
2853	0	670	
2854	0	674	
2855	0	672	
2856	0	669	
2857	0	664	
2858	0	661	
2859	0	655	
2860	0	655	
2861	0	654	
2862	0	649	
2863	0	649	
2864	0	650	
2865	0	653	
2866	0	652	
2867	0	661	
2868	0	660	
2869	0	666	
2870	0	668	
2871	0	673	
2872	0	671	
2873	0	669	
2874	0	674	
2875	0	668	
2876	0	670	
2877	0	661	
2878	0	663	
2879	0	658	
2880	0	652	
2881	0	653	
2882	0	652	
2883	0	652	
2884	0	651	
2885	0	651	
2886	0	657	
2887	0	657	
2888	0	661	
2889	0	661	
2890	0	666	
2891	0	670	
2892	0	675	
2893	0	672	
2894	0	669	
2895	0	671	
2896	0	664	
2897	0	661	
2898	0	659	
2899	0	659	
2900	0	654	
2901	0	654	
2902	0	655	
2903	0	649	
2904	0	650	
2905	0	652	
2906	0	654	
2907	0	657	
2908	0	661	
2909	0	668	
2910	0	669	
2911	0	669	
2912	0	672	
2913	0	673	
2914	0	673	
2915	0	672	
2916	0	670	
2917	0	664	
2918	0	662	
2919	0	660	
2920	0	654	
2921	0	650	
2922	0	652	
2923	0	653	
2924	0	646	
2925	0	649	
2926	0	655	
2927	0	658	
2928	0	661	
2929	0	664	
2930	0	664	
2931	0	671	
2932	0	672	
2933	0	672	
2934	0	673	
2935	0	673	
2936	0	668	
2937	0	664	
2938	0	662	
2939	0	656	
2940	0	652	
2941	0	652	
2942	0	650	
2943	0	652	
2944	0	647	
2945	0	652	
2946	0	655	
2947	0	658	
2948	0	661	
2949	0	666	
2950	0	669	
2951	0	670	
2952	0	671	
2953	0	674	
2954	0	674	
2955	0	669	
2956	0	668	
2957	0	664	
2958	0	664	
2959	0	660	
2960	0	656	
2961	0	653	
2962	0	649	
2963	0	651	
2964	0	652	
2965	0	649	
2966	0	657	
2967	0	657	
2968	0	659	
2969	0	664	
2970	0	671	
2971	0	670	
2972	0	673	
2973	0	674	
2974	0	671	
2975	0	673	
2976	0	667	
2977	0	666	
2978	0	661	
2979	0	658	
2980	0	655	
2981	0	653	
2982	0	647	
2983	0	648	
2984	0	652	
2985	0	653	
2986	0	657	
2987	0	658	
2988	0	662	
2989	0	666	
2990	0	670	
2991	0	669	
2992	0	671	
2993	0	669	
2994	0	672	
2995	0	669	
2996	0	667	
2997	0	660	
2998	0	663	
2999	0	651	
3000	0	656	
3001	0	652	
3002	0	651	
3003	0	649	
3004	0	652	
3005	0	654	
3006	0	657	
3007	0	659	
3008	0	664	
3009	0	668	
3010	0	666	
3011	0	669	
3012	0	673	
3013	0	674	
3014	0	672	
3015	0	673	
3016	0	670	
3017	0	667	
3018	0	665	
3019	0	659	
3020	0	658	
3021	0	650	
3022	0	650	
3023	0	655	
3024	0	652	
3025	0	649	
3026	0	655	
3027	0	658	
3028	0	664	
3029	0	663	
3030	0	666	
3031	0	666	
3032	0	673	
3033	0	676	
3034	0	672	
3035	0	671	
3036	0	668	
3037	0	663	
3038	0	664	
3039	0	656	
3040	0	653	
3041	0	653	
3042	0	651	
3043	0	660	
3044	0	655	
3045	0	654	
3046	0	653	
3047	0	657	
3048	0	661	
3049	0	661	
3050	0	668	
3051	0	669	
3052	0	666	
3053	0	674	
3054	0	671	
3055	0	672	
3056	0	668	
3057	0	665	
3058	0	663	
3059	0	659	
3060	0	656	
3061	0	652	
3062	0	652	
3063	0	647	
3064	0	648	
3065	0	652	
3066	0	656	
3067	0	655	
3068	0	662	
3069	0	664	
3070	0	669	
3071	0	673	
3072	0	670	
3073	0	669	
3074	0	677	
3075	0	671	
3076	0	668	
3077	0	668	
3078	0	661	
3079	0	652	
3080	0	654	
3081	0	652	
3082	0	651	
3083	0	649	
3084	0	657	
3085	0	652	
3086	0	654	
3087	0	658	
3088	0	665	
3089	0	662	
3090	0	666	
3091	0	669	
3092	0	670	
3093	0	671	
3094	0	673	
3095	0	671	
3096	0	672	
3097	0	663	
3098	0	661	
3099	0	657	
3100	0	655	
3101	0	656	
3102	0	647	
3103	0	651	
3104	0	650	
3105	0	651	
3106	0	654	
3107	0	655	
3108	0	660	
3109	0	664	
3110	0	670	
3111	0	671	
3112	0	676	
3113	0	673	
3114	0	670	
3115	0	670	
3116	0	663	
3117	0	666	
3118	0	663	
3119	0	660	
3120	0	658	
3121	0	654	
3122	0	652	
3123	0	650	
3124	0	653	
3125	0	653	
3126	0	653	
3127	0	657	
3128	0	660	
3129	0	662	
3130	0	673	
3131	0	669	
3132	0	672	
3133	0	673	
3134	0	670	
3135	0	669	
3136	0	669	
3137	0	667	
3138	0	662	
3139	0	660	
3140	0	655	
3141	0	651	
3142	0	654	
3143	0	648	
3144	0	652	
3145	0	654	
3146	0	659	
3147	0	658	
3148	0	662	
3149	0	665	
3150	0	668	
3151	0	674	
3152	0	670	
3153	0	672	
3154	0	671	
3155	0	671	
3156	0	667	
3157	0	665	
3158	0	661	
3159	0	659	
3160	0	659	
3161	0	651	
3162	0	648	
3163	0	652	
3164	0	651	
3165	0	652	
3166	0	658	
3167	0	659	
3168	0	658	
3169	0	666	
3170	0	671	
3171	0	672	
3172	0	671	
3173	0	669	
3174	0	672	
3175	0	672	
3176	0	665	
3177	0	664	
3178	0	662	
3179	0	658	
3180	0	655	
3181	0	651	
3182	0	650	
3183	0	652	
3184	0	651	
3185	0	652	
3186	0	649	
3187	0	656	
3188	0	659	
3189	0	668	
3190	0	669	
3191	0	672	
3192	0	674	
3193	0	672	
3194	0	674	
3195	0	672	
3196	0	670	
3197	0	665	
3198	0	662	
3199	0	654	
3200	0	653	
3201	0	653	
3202	0	651	
3203	0	649	
3204	0	656	
3205	0	650	
3206	0	655	
3207	0	657	
3208	0	664	
3209	0	668	
3210	0	667	
3211	0	670	
3212	0	674	
3213	0	672	
3214	0	670	
3215	0	670	
3216	0	669	
3217	0	666	
3218	0	660	
3219	0	659	
3220	0	655	
3221	0	651	
3222	0	647	
3223	0	651	
3224	0	649	
3225	0	652	
3226	0	652	
3227	0	656	
3228	0	656	
3229	0	662	
3230	0	666	
3231	0	670	
3232	0	675	
3233	0	671	
3234	0	670	
3235	0	672	
3236	0	667	
3237	0	666	
3238	0	659	
3239	0	661	
3240	0	656	
3241	0	654	
3242	0	650	
3243	0	649	
3244	0	650	
3245	0	650	
3246	0	652	
3247	0	659	
3248	0	661	
3249	0	665	
3250	0	672	
3251	0	670	
3252	0	665	
3253	0	674	
3254	0	674	
3255	0	669	
3256	0	670	
3257	0	667	
3258	0	661	
3259	0	660	
3260	0	656	
3261	0	655	
3262	0	647	
3263	0	646	
3264	0	650	
3265	0	652	
3266	0	653	
3267	0	659	
3268	0	664	
3269	0	666	
3270	0	673	
3271	0	670	
3272	0	673	
3273	0	673	
3274	0	674	
3275	0	668	
3276	0	672	
3277	0	662	
3278	0	662	
3279	0	659	
3280	0	655	
3281	0	653	
3282	0	649	
3283	0	650	
3284	0	652	
3285	0	653	
3286	0	655	
3287	0	658	
3288	0	665	
3289	0	658	
3290	0	671	
3291	0	670	
3292	0	671	
3293	0	673	
3294	0	672	
3295	0	670	
3296	0	672	
3297	0	667	
3298	0	665	
3299	0	657	
3300	0	653	
3301	0	652	
3302	0	651	
3303	0	648	
3304	0	650	
3305	0	653	
3306	0	655	
3307	0	658	
3308	0	660	
3309	0	670	
3310	0	670	
3311	0	667	
3312	0	673	
3313	0	674	
3314	0	673	
3315	0	672	
3316	0	667	
3317	0	663	
3318	0	662	
3319	0	659	
3320	0	656	
3321	0	654	
3322	0	657	
3323	0	652	
3324	0	652	
3325	0	652	
3326	0	655	
3327	0	656	
3328	0	659	
3329	0	670	
3330	0	669	
3331	0	670	
3332	0	672	
3333	0	673	
3334	0	672	
3335	0	671	
3336	0	668	
3337	0	668	
3338	0	664	
3339	0	657	
3340	0	655	
3341	0	653	
3342	0	650	
3343	0	650	
3344	0	652	
3345	0	652	
3346	0	658	
3347	0	658	
3348	0	661	
3349	0	665	
3350	0	668	
3351	0	672	
3352	0	672	
3353	0	672	
3354	0	672	
3355	0	673	
3356	0	666	
3357	0	667	
3358	0	663	
3359	0	660	
3360	0	659	
3361	0	653	
3362	0	648	
3363	0	652	
3364	0	647	
3365	0	650	
3366	0	655	
3367	0	658	
3368	0	658	
3369	0	663	
3370	0	670	
3371	0	669	
3372	0	671	
3373	0	672	
3374	0	670	
3375	0	670	
3376	0	669	
3377	0	666	
3378	0	662	
3379	0	656	
3380	0	654	
3381	0	652	
3382	0	653	
3383	0	650	
3384	0	652	
3385	0	653	
3386	0	657	
3387	0	658	
3388	0	662	
3389	0	664	
3390	0	669	
3391	0	669	
3392	0	669	
3393	0	672	
3394	0	674	
3395	0	672	
3396	0	669	
3397	0	666	
3398	0	661	
3399	0	659	
3400	0	658	
3401	0	656	
3402	0	651	
3403	0	650	
3404	0	651	
3405	0	651	
3406	0	654	
3407	0	660	
3408	0	664	
3409	0	663	
3410	0	669	
3411	0	668	
3412	0	670	
3413	0	674	
3414	0	671	
3415	0	669	
3416	0	668	
3417	0	664	
3418	0	663	
3419	0	662	
3420	0	657	
3421	0	653	
3422	0	648	
3423	0	652	
3424	0	654	
3425	0	656	
3426	0	652	
3427	0	658	
3428	0	665	
3429	0	663	
3430	0	666	
3431	0	669	
3432	0	672	
3433	0	671	
3434	0	668	
3435	0	671	
3436	0	670	
3437	0	665	
3438	0	666	
3439	0	659	
3440	0	658	
3441	0	654	
3442	0	650	
3443	0	648	
3444	0	650	
3445	0	654	
3446	0	656	
3447	0	655	
3448	0	662	
3449	0	662	
3450	0	664	
3451	0	670	
3452	0	672	
3453	0	673	
3454	0	674	
3455	0	668	
3456	0	664	
3457	0	666	
3458	0	663	
3459	0	660	
3460	0	656	
3461	0	654	
3462	0	651	
3463	0	649	
3464	0	648	
3465	0	653	
3466	0	651	
3467	0	655	
3468	0	661	
3469	0	666	
3470	0	671	
3471	0	671	
3472	0	670	
3473	0	671	
3474	0	671	
3475	0	670	
3476	0	669	
3477	0	664	
3478	0	662	
3479	0	656	
3480	0	654	
3481	0	650	
3482	0	651	
3483	0	650	
3484	0	649	
3485	0	653	
3486	0	655	
3487	0	658	
3488	0	661	
3489	0	663	
3490	0	672	
3491	0	669	
3492	0	672	
3493	0	672	
3494	0	671	
3495	0	672	
3496	0	665	
3497	0	667	
3498	0	667	
3499	0	658	
3500	0	659	
3501	0	655	
3502	0	649	
3503	0	650	
3504	0	648	
3505	0	649	
3506	0	653	
3507	0	654	
3508	0	664	
3509	0	665	
3510	0	667	
3511	0	669	
3512	0	673	
3513	0	674	
3514	0	674	
3515	0	670	
3516	0	668	
3517	0	666	
3518	0	664	
3519	0	657	
3520	0	656	
3521	0	651	
3522	0	652	
3523	0	652	
3524	0	653	
3525	0	656	
3526	0	655	
3527	0	656	
3528	0	655	
3529	0	663	
3530	0	667	
3531	0	668	
3532	0	672	
3533	0	675	
3534	0	674	
3535	0	673	
3536	0	671	
3537	0	669	
3538	0	667	
3539	0	661	
3540	0	659	
3541	0	653	
3542	0	650	
3543	0	649	
3544	0	651	
3545	0	648	
3546	0	655	
3547	0	658	
3548	0	659	
3549	0	668	
3550	0	668	
3551	0	671	
3552	0	673	
3553	0	670	
3554	0	674	
3555	0	671	
3556	0	671	
3557	0	666	
3558	0	663	
3559	0	661	
3560	0	658	
3561	0	654	
3562	0	649	
3563	0	655	
3564	0	656	
3565	0	653	
3566	0	652	
3567	0	657	
3568	0	661	
3569	0	664	
3570	0	664	
3571	0	673	
3572	0	677	
3573	0	673	
3574	0	670	
3575	0	674	
3576	0	670	
3577	0	668	
3578	0	665	
3579	0	661	
3580	0	653	
3581	0	652	
3582	0	650	
3583	0	649	
3584	0	652	
3585	0	652	
3586	0	653	
3587	0	656	
3588	0	661	
3589	0	665	
3590	0	667	
3591	0	671	
3592	0	669	
3593	0	671	
3594	0	671	
3595	0	672	
3596	0	668	
3597	0	666	
3598	0	664	
3599	0	660	
3600	0	658	
3601	0	655	
3602	0	654	
3603	0	649	
3604	0	650	
3605	0	654	
3606	0	656	
3607	0	659	
3608	0	660	
3609	0	662	
3610	0	665	
3611	0	673	
3612	0	673	
3613	0	673	
3614	0	671	
3615	0	673	
3616	0	667	
3617	0	665	
3618	0	662	
3619	0	662	
3620	0	657	
3621	0	651	
3622	0	652	
3623	0	651	
3624	0	650	
3625	0	650	
3626	0	657	
3627	0	656	
3628	0	660	
3629	0	664	
3630	0	668	
3631	0	668	
3632	0	672	
3633	0	674	
3634	0	672	
3635	0	674	
3636	0	672	
3637	0	668	
3638	0	667	
3639	0	660	
3640	0	661	
3641	0	652	
3642	0	653	
3643	0	652	
3644	0	647	
3645	0	651	
3646	0	655	
3647	0	659	
3648	0	660	
3649	0	661	
3650	0	669	
3651	0	674	
3652	0	671	
3653	0	673	
3654	0	674	
3655	0	668	
3656	0	669	
3657	0	666	
3658	0	661	
3659	0	657	
3660	0	659	
3661	0	652	
3662	0	653	
3663	0	650	
3664	0	653	
3665	0	653	
3666	0	653	
3667	0	659	
3668	0	659	
3669	0	664	
3670	0	669	
3671	0	669	
3672	0	671	
3673	0	674	
3674	0	671	
3675	0	670	
3676	0	670	
3677	0	669	
3678	0	668	
3679	0	661	
3680	0	653	
3681	0	651	
3682	0	650	
3683	0	651	
3684	0	653	
3685	0	650	
3686	0	654	
3687	0	656	
3688	0	661	
3689	0	663	
3690	0	665	
3691	0	670	
3692	0	673	
3693	0	670	
3694	0	673	
3695	0	671	
3696	0	668	
3697	0	664	
3698	0	671	
3699	0	662	
3700	0	658	
3701	0	651	
3702	0	649	
3703	0	649	
3704	0	651	
3705	0	652	
3706	0	655	
3707	0	655	
3708	0	659	
3709	0	666	
3710	0	667	
3711	0	671	
3712	0	667	
3713	0	674	
3714	0	670	
3715	0	675	
3716	0	667	
3717	0	662	
3718	0	666	
3719	0	664	
3720	0	655	
3721	0	654	
3722	0	652	
3723	0	653	
3724	0	652	
3725	0	653	
3726	0	653	
3727	0	650	
3728	0	662	
3729	0	662	
3730	0	664	
3731	0	673	
3732	0	669	
3733	0	675	
3734	0	671	
3735	0	667	
3736	0	667	
3737	0	666	
3738	0	664	
3739	0	659	
3740	0	659	
3741	0	651	
3742	0	649	
3743	0	652	
3744	0	649	
3745	0	648	
3746	0	658	
3747	0	654	
3748	0	663	
3749	0	664	
3750	0	668	
3751	0	665	
3752	0	674	
3753	0	670	
3754	0	673	
3755	0	672	
3756	0	673	
3757	0	666	
3758	0	664	
3759	0	661	
3760	0	657	
3761	0	655	
3762	0	652	
3763	0	651	
3764	0	645	
3765	0	650	
3766	0	655	
3767	0	656	
3768	0	661	
3769	0	662	
3770	0	669	
3771	0	670	
3772	0	668	
3773	0	672	
3774	0	670	
3775	0	672	
3776	0	668	
3777	0	662	
3778	0	662	
3779	0	662	
3780	0	654	
3781	0	652	
3782	0	651	
3783	0	654	
3784	0	653	
3785	0	650	
3786	0	655	
3787	0	655	
3788	0	660	
3789	0	665	
3790	0	669	
3791	0	665	
3792	0	669	
3793	0	671	
3794	0	670	
3795	0	669	
3796	0	674	
3797	0	668	
3798	0	664	
3799	0	661	
3800	0	659	
3801	0	656	
3802	0	651	
3803	0	650	
3804	0	648	
3805	0	650	
3806	0	657	
3807	0	655	
3808	0	658	
3809	0	660	
3810	0	666	
3811	0	668	
3812	0	668	
3813	0	673	
3814	0	673	
3815	0	670	
3816	0	669	
3817	0	666	
3818	0	662	
3819	0	663	
3820	0	655	
3821	0	651	
3822	0	651	
3823	0	654	
3824	0	653	
3825	0	651	
3826	0	654	
3827	0	654	
3828	0	656	
3829	0	661	
3830	0	669	
3831	0	670	
3832	0	669	
3833	0	674	
3834	0	674	
3835	0	672	
3836	0	675	
3837	0	666	
3838	0	663	
3839	0	660	
3840	0	656	
3841	0	655	
3842	0	651	
3843	0	650	
3844	0	652	
3845	0	652	
3846	0	657	
3847	0	655	
3848	0	660	
3849	0	660	
3850	0	663	
3851	0	668	
3852	0	670	
3853	0	672	
3854	0	674	
3855	0	671	
3856	0	668	
3857	0	669	
3858	0	665	
3859	0	659	
3860	0	659	
3861	0	656	
3862	0	648	
3863	0	652	
3864	0	648	
3865	0	653	
3866	0	654	
3867	0	658	
3868	0	662	
3869	0	664	
3870	0	666	
3871	0	671	
3872	0	675	
3873	0	667	
3874	0	673	
3875	0	671	
3876	0	670	
3877	0	666	
3878	0	663	
3879	0	661	
3880	0	653	
3881	0	651	
3882	0	652	
3883	0	653	
3884	0	655	
3885	0	648	
3886	0	652	
3887	0	656	
3888	0	659	
3889	0	665	
3890	0	666	
3891	0	673	
3892	0	671	
3893	0	673	
3894	0	673	
3895	0	670	
3896	0	665	
3897	0	665	
3898	0	664	
3899	0	660	
3900	0	655	
3901	0	656	
3902	0	649	
3903	0	642	
3904	0	652	
3905	0	651	
3906	0	655	
3907	0	653	
3908	0	658	
3909	0	663	
3910	0	670	
3911	0	675	
3912	0	673	
3913	0	666	
3914	0	671	
3915	0	669	
3916	0	669	
3917	0	670	
3918	0	664	
3919	0	660	
3920	0	657	
3921	0	649	
3922	0	649	
3923	0	657	
3924	0	647	
3925	0	648	
3926	0	655	
3927	0	654	
3928	0	659	
3929	0	660	
3930	0	662	
3931	0	667	
3932	0	672	
3933	0	673	
3934	0	671	
3935	0	673	
3936	0	667	
3937	0	668	
3938	0	664	
3939	0	663	
3940	0	659	
3941	0	652	
3942	0	647	
3943	0	648	
3944	0	649	
3945	0	651	
3946	0	653	
3947	0	655	
3948	0	658	
3949	0	663	
3950	0	664	
3951	0	670	
3952	0	669	
3953	0	671	
3954	0	671	
3955	0	670	
3956	0	666	
3957	0	670	
3958	0	661	
3959	0	662	
3960	0	657	
3961	0	651	
3962	0	650	
3963	0	650	
3964	0	652	
3965	0	653	
3966	0	653	
3967	0	654	
3968	0	661	
3969	0	663	
3970	0	668	
3971	0	669	
3972	0	670	
3973	0	671	
3974	0	672	
3975	0	673	
3976	0	671	
3977	0	662	
3978	0	665	
3979	0	659	
3980	0	659	
3981	0	653	
3982	0	651	
3983	0	653	
3984	0	652	
3985	0	652	
3986	0	653	
3987	0	654	
3988	0	659	
3989	0	660	
3990	0	666	
3991	0	670	
3992	0	668	
3993	0	672	
3994	0	670	
3995	0	671	
3996	0	667	
3997	0	669	
3998	0	662	
3999	0	659	
4000	0	660	
4001	0	656	
4002	0	649	
4003	0	643	
4004	0	650	
4005	0	647	
4006	0	651	
4007	0	652	
4008	0	658	
4009	0	663	
4010	0	662	
4011	0	667	
4012	0	670	
4013	0	673	
4014	0	674	
4015	0	672	
4016	0	670	
4017	0	664	
4018	0	667	
4019	0	656	
4020	0	655	
4021	0	655	
4022	0	654	
4023	0	649	
4024	0	644	
4025	0	650	
4026	0	648	
4027	0	656	
4028	0	654	
4029	0	662	
4030	0	662	
4031	0	668	
4032	0	672	
4033	0	673	
4034	0	674	
4035	0	669	
4036	0	667	
4037	0	664	
4038	0	667	
4039	0	662	
4040	0	656	
4041	0	656	
4042	0	651	
4043	0	642	
4044	0	650	
4045	0	652	
4046	0	650	
4047	0	657	
4048	0	657	
4049	0	657	
4050	0	663	
4051	0	670	
4052	0	669	
4053	0	669	
4054	0	672	
4055	0	673	
4056	0	673	
4057	0	668	
4058	0	661	
4059	0	663	
4060	0	656	
4061	0	656	
4062	0	657	
4063	0	652	
4064	0	650	
4065	0	653	
4066	0	654	
4067	0	653	
4068	0	658	
4069	0	662	
4070	0	668	
4071	0	672	
4072	0	674	
4073	0	674	
4074	0	670	
4075	0	670	
4076	0	669	
4077	0	663	
4078	0	664	
4079	0	658	
4080	0	656	
4081	0	651	
4082	0	651	
4083	0	650	
4084	0	648	
4085	0	647	
4086	0	650	
4087	0	651	
4088	0	659	
4089	0	659	
4090	0	663	
4091	0	668	
4092	0	670	
4093	0	671	
4094	0	672	
4095	0	669	
4096	0	666	
4097	0	664	
4098	0	664	
4099	0	660	
4100	0	657	
4101	0	655	
4102	0	652	
4103	0	648	
4104	0	648	
4105	0	653	
4106	0	648	
4107	0	654	
4108	0	656	
4109	0	663	
4110	0	665	
4111	0	666	
4112	0	668	
4113	0	671	
4114	0	672	
4115	0	669	
4116	0	668	
4117	0	670	
4118	0	663	
4119	0	664	
4120	0	654	
4121	0	655	
4122	0	650	
4123	0	649	
4124	0	649	
4125	0	651	
4126	0	651	
4127	0	658	
4128	0	655	
4129	0	661	
4130	0	665	
4131	0	665	
4132	0	672	
4133	0	672	
4134	0	670	
4135	0	672	
4136	0	673	
4137	0	666	
4138	0	663	
4139	0	663	
4140	0	658	
4141	0	655	
4142	0	650	
4143	0	652	
4144	0	648	
4145	0	652	
4146	0	650	
4147	0	653	
4148	0	658	
4149	0	662	
4150	0	663	
4151	0	668	
4152	0	668	
4153	0	671	
4154	0	671	
4155	0	670	
4156	0	671	
4157	0	665	
4158	0	662	
4159	0	661	
4160	0	657	
4161	0	653	
4162	0	649	
4163	0	650	
4164	0	650	
4165	0	650	
4166	0	653	
4167	0	654	
4168	0	659	
4169	0	661	
4170	0	664	
4171	0	671	
4172	0	670	
4173	0	674	
4174	0	670	
4175	0	673	
4176	0	672	
4177	0	670	
4178	0	664	
4179	0	659	
4180	0	659	
4181	0	655	
4182	0	650	
4183	0	652	
4184	0	650	
4185	0	651	
4186	0	651	
4187	0	654	
4188	0	659	
4189	0	661	
4190	0	663	
4191	0	668	
4192	0	669	
4193	0	671	
4194	0	671	
4195	0	671	
4196	0	667	
4197	0	666	
4198	0	666	
4199	0	660	
4200	0	652	
4201	0	655	
4202	0	653	
4203	0	648	
4204	0	650	
4205	0	650	
4206	0	648	
4207	0	656	
4208	0	657	
4209	0	663	
4210	0	668	
4211	0	669	
4212	0	668	
4213	0	668	
4214	0	671	
4215	0	669	
4216	0	667	
4217	0	667	
4218	0	664	
4219	0	663	
4220	0	661	
4221	0	657	
4222	0	652	
4223	0	648	
4224	0	653	
4225	0	647	
4226	0	650	
4227	0	656	
4228	0	657	
4229	0	663	
4230	0	666	
4231	0	670	
4232	0	670	
4233	0	673	
4234	0	672	
4235	0	670	
4236	0	668	
4237	0	663	
4238	0	664	
4239	0	659	
4240	0	658	
4241	0	657	
4242	0	651	
4243	0	650	
4244	0	648	
4245	0	650	
4246	0	652	
4247	0	660	
4248	0	659	
4249	0	658	
4250	0	665	
4251	0	667	
4252	0	670	
4253	0	670	
4254	0	673	
4255	0	669	
4256	0	667	
4257	0	669	
4258	0	664	
4259	0	661	
4260	0	663	
4261	0	653	
4262	0	650	
4263	0	652	
4264	0	651	
4265	0	650	
4266	0	654	
4267	0	656	
4268	0	656	
4269	0	664	
4270	0	665	
4271	0	666	
4272	0	669	
4273	0	670	
4274	0	669	
4275	0	674	
4276	0	670	
4277	0	667	
4278	0	662	
4279	0	664	
4280	0	659	
4281	0	652	
4282	0	651	
4283	0	649	
4284	0	652	
4285	0	650	
4286	0	651	
4287	0	654	
4288	0	658	
4289	0	660	
4290	0	666	
4291	0	665	
4292	0	673	
4293	0	671	
4294	0	672	
4295	0	670	
4296	0	668	
4297	0	667	
4298	0	667	
4299	0	664	
4300	0	657	
4301	0	652	
4302	0	650	
4303	0	651	
4304	0	649	
4305	0	648	
4306	0	654	
4307	0	655	
4308	0	660	
4309	0	660	
4310	0	667	
4311	0	668	
4312	0	670	
4313	0	671	
4314	0	672	
4315	0	669	
4316	0	674	
4317	0	668	
4318	0	663	
4319	0	661	
4320	0	658	
4321	0	650	
4322	0	650	
4323	0	653	
4324	0	649	
4325	0	649	
4326	0	648	
4327	0	654	
4328	0	660	
4329	0	658	
4330	0	660	
4331	0	669	
4332	0	672	
4333	0	671	
4334	0	671	
4335	0	669	
4336	0	672	
4337	0	669	
4338	0	665	
4339	0	664	
4340	0	657	
4341	0	655	
4342	0	653	
4343	0	647	
4344	0	654	
4345	0	651	
4346	0	653	
4347	0	651	
4348	0	661	
4349	0	660	
4350	0	665	
4351	0	664	
4352	0	673	
4353	0	672	
4354	0	669	
4355	0	673	
4356	0	673	
4357	0	669	
4358	0	663	
4359	0	666	
4360	0	659	
4361	0	658	
4362	0	652	
4363	0	650	
4364	0	652	
4365	0	650	
4366	0	655	
4367	0	656	
4368	0	662	
4369	0	660	
4370	0	664	
4371	0	672	
4372	0	670	
4373	0	670	
4374	0	673	
4375	0	672	
4376	0	668	
4377	0	667	
4378	0	665	
4379	0	659	
4380	0	658	
4381	0	654	
4382	0	653	
4383	0	652	
4384	0	652	
4385	0	651	
4386	0	653	
4387	0	658	
4388	0	660	
4389	0	662	
4390	0	661	
4391	0	668	
4392	0	672	
4393	0	670	
4394	0	668	
4395	0	673	
4396	0	672	
4397	0	668	
4398	0	666	
4399	0	662	
4400	0	655	
4401	0	659	
4402	0	654	
4403	0	648	
4404	0	652	
4405	0	650	
4406	0	650	
4407	0	655	
4408	0	658	
4409	0	662	
4410	0	667	
4411	0	670	
4412	0	669	
4413	0	671	
4414	0	671	
4415	0	672	
4416	0	673	
4417	0	668	
4418	0	662	
4419	0	662	
4420	0	656	
4421	0	655	
4422	0	654	
4423	0	652	
4424	0	649	
4425	0	648	
4426	0	652	
4427	0	653	
4428	0	658	
4429	0	660	
4430	0	666	
4431	0	671	
4432	0	673	
4433	0	672	
4434	0	672	
4435	0	673	
4436	0	680	
4437	0	668	
4438	0	664	
4439	0	660	
4440	0	657	
4441	0	652	
4442	0	650	
4443	0	649	
4444	0	652	
4445	0	654	
4446	0	654	
4447	0	656	
4448	0	659	
4449	0	660	
4450	0	665	
4451	0	667	
4452	0	674	
4453	0	670	
4454	0	673	
4455	0	670	
4456	0	671	
4457	0	667	
4458	0	667	
4459	0	662	
4460	0	659	
4461	0	655	
4462	0	647	
4463	0	649	
4464	0	650	
4465	0	650	
4466	0	656	
4467	0	650	
4468	0	658	
4469	0	664	
4470	0	666	
4471	0	668	
4472	0	672	
4473	0	671	
4474	0	674	
4475	0	673	
4476	0	668	
4477	0	668	
4478	0	667	
4479	0	664	
4480	0	662	
4481	0	655	
4482	0	652	
4483	0	649	
4484	0	651	
4485	0	649	
4486	0	652	
4487	0	654	
4488	0	657	
4489	0	662	
4490	0	663	
4491	0	665	
4492	0	672	
4493	0	672	
4494	0	668	
4495	0	669	
4496	0	671	
4497	0	667	
4498	0	665	
4499	0	663	
4500	0	658	
4501	0	655	
4502	0	655	
4503	0	648	
4504	0	652	
4505	0	653	
4506	0	652	
4507	0	652	
4508	0	659	
4509	0	661	
4510	0	665	
4511	0	670	
4512	0	673	
4513	0	673	
4514	0	672	
4515	0	670	
4516	0	671	
4517	0	671	
4518	0	665	
4519	0	662	
4520	0	661	
4521	0	661	
4522	0	656	
4523	0	653	
4524	0	649	
4525	0	649	
4526	0	657	
4527	0	657	
4528	0	660	
4529	0	656	
4530	0	666	
4531	0	665	
4532	0	673	
4533	0	673	
4534	0	671	
4535	0	673	
4536	0	673	
4537	0	670	
4538	0	666	
4539	0	662	
4540	0	660	
4541	0	655	
4542	0	652	
4543	0	649	
4544	0	650	
4545	0	654	
4546	0	653	
4547	0	657	
4548	0	661	
4549	0	659	
4550	0	668	
4551	0	667	
4552	0	672	
4553	0	675	
4554	0	673	
4555	0	675	
4556	0	672	
4557	0	667	
4558	0	668	
4559	0	664	
4560	0	658	
4561	0	658	
4562	0	656	
4563	0	652	
4564	0	651	
4565	0	648	
4566	0	652	
4567	0	658	
4568	0	661	
4569	0	660	
4570	0	665	
4571	0	668	
4572	0	665	
4573	0	674	
4574	0	673	
4575	0	672	
4576	0	670	
4577	0	669	
4578	0	669	
4579	0	664	
4580	0	660	
4581	0	655	
4582	0	654	
4583	0	652	
4584	0	652	
4585	0	656	
4586	0	651	
4587	0	654	
4588	0	654	
4589	0	662	
4590	0	662	
4591	0	668	
4592	0	674	
4593	0	672	
4594	0	671	
4595	0	669	
4596	0	667	
4597	0	662	
4598	0	669	
4599	0	660	
4600	0	657	
4601	0	660	
4602	0	654	
4603	0	654	
4604	0	650	
4605	0	651	
4606	0	656	
4607	0	658	
4608	0	661	
4609	0	662	
4610	0	666	
4611	0	668	
4612	0	674	
4613	0	673	
4614	0	674	
4615	0	672	
4616	0	671	
4617	0	669	
4618	0	665	
4619	0	664	
4620	0	656	
4621	0	657	
4622	0	653	
4623	0	654	
4624	0	654	
4625	0	657	
4626	0	655	
4627	0	658	
4628	0	659	
4629	0	662	
4630	0	667	
4631	0	672	
4632	0	673	
4633	0	669	
4634	0	673	
4635	0	670	
4636	0	666	
4637	0	667	
4638	0	664	
4639	0	664	
4640	0	660	
4641	0	657	
4642	0	653	
4643	0	652	
4644	0	650	
4645	0	646	
4646	0	653	
4647	0	659	
4648	0	660	
4649	0	664	
4650	0	662	
4651	0	668	
4652	0	671	
4653	0	674	
4654	0	674	
4655	0	673	
4656	0	672	
4657	0	671	
4658	0	664	
4659	0	666	
4660	0	657	
4661	0	658	
4662	0	653	
4663	0	648	
4664	0	651	
4665	0	650	
4666	0	654	
4667	0	658	
4668	0	661	
4669	0	661	
4670	0	662	
4671	0	670	
4672	0	667	
4673	0	674	
4674	0	672	
4675	0	674	
4676	0	670	
4677	0	669	
4678	0	665	
4679	0	660	
4680	0	660	
4681	0	654	
4682	0	653	
4683	0	651	
4684	0	652	
4685	0	648	
4686	0	654	
4687	0	653	
4688	0	659	
4689	0	661	
4690	0	663	
4691	0	669	
4692	0	671	
4693	0	675	
4694	0	672	
4695	0	675	
4696	0	674	
4697	0	672	
4698	0	668	
4699	0	666	
4700	0	657	
4701	0	653	
4702	0	651	
4703	0	652	
4704	0	650	
4705	0	650	
4706	0	651	
4707	0	655	
4708	0	660	
4709	0	661	
4710	0	664	
4711	0	669	
4712	0	673	
4713	0	673	
4714	0	671	
4715	0	672	
4716	0	671	
4717	0	671	
4718	0	666	
4719	0	656	
4720	0	659	
4721	0	654	
4722	0	654	
4723	0	650	
4724	0	650	
4725	0	650	
4726	0	652	
4727	0	656	
4728	0	658	
4729	0	661	
4730	0	667	
4731	0	664	
4732	0	671	
4733	0	671	
4734	0	672	
4735	0	673	
4736	0	670	
4737	0	671	
4738	0	667	
4739	0	665	
4740	0	657	
4741	0	654	
4742	0	654	
4743	0	651	
4744	0	651	
4745	0	654	
4746	0	650	
4747	0	657	
4748	0	658	
4749	0	661	
4750	0	668	
4751	0	667	
4752	0	670	
4753	0	672	
4754	0	670	
4755	0	672	
4756	0	664	
4757	0	668	
4758	0	665	
4759	0	661	
4760	0	661	
4761	0	656	
4762	0	652	
4763	0	648	
4764	0	651	
4765	0	655	
4766	0	652	
4767	0	655	
4768	0	654	
4769	0	660	
4770	0	664	
4771	0	666	
4772	0	668	
4773	0	670	
4774	0	674	
4775	0	679	
4776	0	670	
4777	0	669	
4778	0	661	
4779	0	662	
4780	0	660	
4781	0	656	
4782	0	652	
4783	0	655	
4784	0	650	
4785	0	654	
4786	0	650	
4787	0	657	
4788	0	659	
4789	0	659	
4790	0	665	
4791	0	668	
4792	0	671	
4793	0	673	
4794	0	673	
4795	0	672	
4796	0	668	
4797	0	669	
4798	0	664	
4799	0	663	
4800	0	660	
4801	0	660	
4802	0	654	
4803	0	654	
4804	0	653	
4805	0	650	
4806	0	653	
4807	0	654	
4808	0	655	
4809	0	658	
4810	0	663	
4811	0	670	
4812	0	669	
4813	0	672	
4814	0	674	
4815	0	674	
4816	0	673	
4817	0	667	
4818	0	666	
4819	0	662	
4820	0	659	
4821	0	657	
4822	0	654	
4823	0	650	
4824	0	650	
4825	0	652	
4826	0	655	
4827	0	656	
4828	0	658	
4829	0	661	
4830	0	664	
4831	0	671	
4832	0	669	
4833	0	671	
4834	0	676	
4835	0	670	
4836	0	671	
4837	0	670	
4838	0	667	
4839	0	664	
4840	0	659	
4841	0	657	
4842	0	653	
4843	0	648	
4844	0	652	
4845	0	649	
4846	0	652	
4847	0	653	
4848	0	656	
4849	0	662	
4850	0	663	
4851	0	665	
4852	0	671	
4853	0	670	
4854	0	673	
4855	0	668	
4856	0	670	
4857	0	665	
4858	0	667	
4859	0	661	
4860	0	657	
4861	0	658	
4862	0	654	
4863	0	652	
4864	0	651	
4865	0	648	
4866	0	652	
4867	0	653	
4868	0	656	
4869	0	662	
4870	0	661	
4871	0	664	
4872	0	670	
4873	0	672	
4874	0	670	
4875	0	673	
4876	0	672	
4877	0	668	
4878	0	663	
4879	0	665	
4880	0	664	
4881	0	656	
4882	0	650	
4883	0	651	
4884	0	650	
4885	0	649	
4886	0	649	
4887	0	653	
4888	0	656	
4889	0	664	
4890	0	664	
4891	0	667	
4892	0	669	
4893	0	671	
4894	0	672	
4895	0	672	
4896	0	669	
4897	0	669	
4898	0	669	
4899	0	661	
4900	0	658	
4901	0	654	
4902	0	648	
4903	0	648	
4904	0	652	
4905	0	650	
4906	0	650	
4907	0	651	
4908	0	657	
4909	0	660	
4910	0	659	
4911	0	669	
4912	0	668	
4913	0	672	
4914	0	674	
4915	0	670	
4916	0	668	
4917	0	666	
4918	0	664	
4919	0	664	
4920	0	658	
4921	0	652	
4922	0	650	
4923	0	649	
4924	0	648	
4925	0	651	
4926	0	652	
4927	0	650	
4928	0	652	
4929	0	659	
4930	0	661	
4931	0	665	
4932	0	668	
4933	0	670	
4934	0	673	
4935	0	672	
4936	0	670	
4937	0	668	
4938	0	666	
4939	0	661	
4940	0	657	
4941	0	656	
4942	0	653	
4943	0	648	
4944	0	650	
4945	0	647	
4946	0	654	
4947	0	646	
4948	0	654	
4949	0	657	
4950	0	662	
4951	0	666	
4952	0	670	
4953	0	672	
4954	0	670	
4955	0	673	
4956	0	672	
4957	0	671	
4958	0	664	
4959	0	663	
4960	0	657	
4961	0	656	
4962	0	654	
4963	0	651	
4964	0	650	
4965	0	650	
4966	0	650	
4967	0	654	
4968	0	657	
4969	0	660	
4970	0	665	
4971	0	666	
4972	0	668	
4973	0	672	
4974	0	672	
4975	0	674	
4976	0	667	
4977	0	668	
4978	0	665	
4979	0	660	
4980	0	660	
4981	0	655	
4982	0	652	
4983	0	650	
4984	0	648	
4985	0	648	
4986	0	653	
4987	0	651	
4988	0	658	
4989	0	661	
4990	0	663	
4991	0	666	
4992	0	669	
4993	0	672	
4994	0	672	
4995	0	670	
4996	0	671	
4997	0	669	
4998	0	665	
4999	0	664	
5000	0	661	
5001	0	656	
5002	0	654	
5003	0	653	
5004	0	648	
5005	0	648	
5006	0	651	
5007	0	652	
5008	0	658	
5009	0	661	
5010	0	661	
5011	0	664	
5012	0	668	
5013	0	670	
5014	0	673	
5015	0	672	
5016	0	667	
5017	0	668	
5018	0	664	
5019	0	663	
5020	0	657	
5021	0	656	
5022	0	652	
5023	0	650	
5024	0	652	
5025	0	648	
5026	0	654	
5027	0	657	
5028	0	666	
5029	0	663	
5030	0	667	
5031	0	660	
5032	0	670	
5033	0	673	
5034	0	673	
5035	0	670	
5036	0	670	
5037	0	672	
5038	0	665	
5039	0	665	
5040	0	656	
5041	0	653	
5042	0	649	
5043	0	651	
5044	0	650	
5045	0	650	
5046	0	653	
5047	0	648	
5048	0	656	
5049	0	656	
5050	0	661	
5051	0	668	
5052	0	668	
5053	0	669	
5054	0	674	
5055	0	672	
5056	0	674	
5057	0	666	
5058	0	667	
5059	0	665	
5060	0	659	
5061	0	654	
5062	0	650	
5063	0	648	
5064	0	653	
5065	0	650	
5066	0	651	
5067	0	656	
5068	0	652	
5069	0	660	
5070	0	661	
5071	0	663	
5072	0	669	
5073	0	670	
5074	0	673	
5075	0	672	
5076	0	669	
5077	0	668	
5078	0	666	
5079	0	666	
5080	0	660	
5081	0	656	
5082	0	650	
5083	0	651	
5084	0	652	
5085	0	648	
5086	0	652	
5087	0	653	
5088	0	656	
5089	0	659	
5090	0	661	
5091	0	664	
5092	0	669	
5093	0	672	
5094	0	672	
5095	0	674	
5096	0	678	
5097	0	664	
5098	0	663	
5099	0	664	
5100	0	661	
5101	0	652	
5102	0	652	
5103	0	650	
5104	0	649	
5105	0	649	
5106	0	648	
5107	0	655	
5108	0	657	
5109	0	662	
5110	0	663	
5111	0	667	
5112	0	672	
5113	0	670	
5114	0	672	
5115	0	674	
5116	0	669	
5117	0	668	
5118	0	667	
5119	0	661	
5120	0	661	
5121	0	659	
5122	0	654	
5123	0	652	
5124	0	650	
5125	0	650	
5126	0	647	
5127	0	653	
5128	0	658	
5129	0	656	
5130	0	663	
5131	0	667	
5132	0	670	
5133	0	673	
5134	0	671	
5135	0	671	
5136	0	674	
5137	0	667	
5138	0	666	
5139	0	666	
5140	0	660	
5141	0	656	
5142	0	655	
5143	0	653	
5144	0	651	
5145	0	654	
5146	0	650	
5147	0	655	
5148	0	654	
5149	0	660	
5150	0	663	
5151	0	668	
5152	0	667	
5153	0	674	
5154	0	670	
5155	0	672	
5156	0	673	
5157	0	671	
5158	0	670	
5159	0	667	
5160	0	660	
5161	0	659	
5162	0	653	
5163	0	649	
5164	0	650	
5165	0	650	
5166	0	651	
5167	0	652	
5168	0	657	
5169	0	662	
5170	0	662	
5171	0	662	
5172	0	670	
5173	0	674	
5174	0	673	
5175	0	671	
5176	0	671	
5177	0	668	
5178	0	670	
5179	0	662	
5180	0	660	
5181	0	656	
5182	0	652	
5183	0	649	
5184	0	653	
5185	0	649	
5186	0	651	
5187	0	652	
5188	0	658	
5189	0	659	
5190	0	660	
5191	0	668	
5192	0	671	
5193	0	671	
5194	0	674	
5195	0	672	
5196	0	669	
5197	0	668	
5198	0	671	
5199	0	662	
5200	0	662	
5201	0	658	
5202	0	654	
5203	0	652	
5204	0	650	
5205	0	649	
5206	0	650	
5207	0	651	
5208	0	656	
5209	0	660	
5210	0	662	
5211	0	666	
5212	0	668	
5213	0	671	
5214	0	668	
5215	0	673	
5216	0	671	
5217	0	668	
5218	0	667	
5219	0	663	
5220	0	660	
5221	0	659	
5222	0	653	
5223	0	653	
5224	0	653	
5225	0	654	
5226	0	649	
5227	0	657	
5228	0	650	
5229	0	660	
5230	0	662	
5231	0	666	
5232	0	669	
5233	0	674	
5234	0	674	
5235	0	672	
5236	0	670	
5237	0	673	
5238	0	672	
5239	0	661	
5240	0	662	
5241	0	657	
5242	0	653	
5243	0	652	
5244	0	648	
5245	0	650	
5246	0	650	
5247	0	655	
5248	0	656	
5249	0	663	
5250	0	667	
5251	0	665	
5252	0	669	
5253	0	672	
5254	0	671	
5255	0	672	
5256	0	668	
5257	0	663	
5258	0	666	
5259	0	661	
5260	0	659	
5261	0	653	
5262	0	652	
5263	0	650	
5264	0	649	
5265	0	651	
5266	0	650	
5267	0	652	
5268	0	656	
5269	0	658	
5270	0	660	
5271	0	665	
5272	0	666	
5273	0	667	
5274	0	673	
5275	0	669	
5276	0	665	
5277	0	671	
5278	0	667	
5279	0	663	
5280	0	658	
5281	0	660	
5282	0	650	
5283	0	651	
5284	0	651	
5285	0	652	
5286	0	653	
5287	0	656	
5288	0	655	
5289	0	662	
5290	0	663	
5291	0	664	
5292	0	672	
5293	0	673	
5294	0	673	
5295	0	668	
5296	0	674	
5297	0	674	
5298	0	662	
5299	0	665	
5300	0	663	
5301	0	656	
5302	0	655	
5303	0	648	
5304	0	652	
5305	0	656	
5306	0	651	
5307	0	653	
5308	0	655	
5309	0	658	
5310	0	667	
5311	0	663	
5312	0	668	
5313	0	667	
5314	0	673	
5315	0	675	
5316	0	670	
5317	0	668	
5318	0	666	
5319	0	662	
5320	0	661	
5321	0	655	
5322	0	654	
5323	0	652	
5324	0	650	
5325	0	650	
5326	0	653	
5327	0	652	
5328	0	654	
5329	0	661	
5330	0	660	
5331	0	667	
5332	0	671	
5333	0	670	
5334	0	671	
5335	0	673	
5336	0	674	
5337	0	672	
5338	0	665	
5339	0	668	
5340	0	658	
5341	0	659	
5342	0	652	
5343	0	648	
5344	0	653	
5345	0	649	
5346	0	653	
5347	0	656	
5348	0	656	
5349	0	657	
5350	0	664	
5351	0	668	
5352	0	669	
5353	0	670	
5354	0	669	
5355	0	673	
5356	0	672	
5357	0	670	
5358	0	667	
5359	0	665	
5360	0	661	
5361	0	654	
5362	0	653	
5363	0	653	
5364	0	652	
5365	0	650	
5366	0	652	
5367	0	650	
5368	0	656	
5369	0	658	
5370	0	662	
5371	0	668	
5372	0	670	
5373	0	672	
5374	0	671	
5375	0	674	
5376	0	671	
5377	0	668	
5378	0	664	
5379	0	663	
5380	0	660	
5381	0	657	
5382	0	655	
5383	0	653	
5384	0	650	
5385	0	650	
5386	0	649	
5387	0	653	
5388	0	655	
5389	0	659	
5390	0	663	
5391	0	669	
5392	0	670	
5393	0	669	
5394	0	672	
5395	0	671	
5396	0	673	
5397	0	670	
5398	0	667	
5399	0	666	
5400	0	663	
5401	0	656	
5402	0	654	
5403	0	646	
5404	0	649	
5405	0	647	
5406	0	656	
5407	0	651	
5408	0	654	
5409	0	658	
5410	0	665	
5411	0	665	
5412	0	668	
5413	0	674	
5414	0	672	
5415	0	672	
5416	0	672	
5417	0	674	
5418	0	665	
5419	0	666	
5420	0	661	
5421	0	655	
5422	0	656	
5423	0	652	
5424	0	646	
5425	0	649	
5426	0	651	
5427	0	653	
5428	0	656	
5429	0	658	
5430	0	666	
5431	0	665	
5432	0	666	
5433	0	671	
5434	0	673	
5435	0	672	
5436	0	671	
5437	0	667	
5438	0	666	
5439	0	663	
5440	0	661	
5441	0	657	
5442	0	651	
5443	0	650	
5444	0	647	
5445	0	648	
5446	0	650	
5447	0	659	
5448	0	656	
5449	0	658	
5450	0	660	
5451	0	666	
5452	0	670	
5453	0	674	
5454	0	672	
5455	0	673	
5456	0	671	
5457	0	669	
5458	0	665	
5459	0	662	
5460	0	661	
5461	0	657	
5462	0	651	
5463	0	647	
5464	0	652	
5465	0	648	
5466	0	648	
5467	0	654	
5468	0	655	
5469	0	658	
5470	0	661	
5471	0	664	
5472	0	672	
5473	0	672	
5474	0	674	
5475	0	670	
5476	0	672	
5477	0	666	
5478	0	668	
5479	0	664	
5480	0	661	
5481	0	656	
5482	0	652	
5483	0	648	
5484	0	649	
5485	0	650	
5486	0	652	
5487	0	652	
5488	0	655	
5489	0	659	
5490	0	664	
5491	0	665	
5492	0	668	
5493	0	673	
5494	0	672	
5495	0	675	
5496	0	670	
5497	0	670	
5498	0	670	
5499	0	664	
5500	0	663	
5501	0	652	
5502	0	656	
5503	0	650	
5504	0	648	
5505	0	651	
5506	0	648	
5507	0	652	
5508	0	655	
5509	0	660	
5510	0	662	
5511	0	667	
5512	0	672	
5513	0	676	
5514	0	669	
5515	0	673	
5516	0	671	
5517	0	671	
5518	0	668	
5519	0	662	
5520	0	658	
5521	0	661	
5522	0	655	
5523	0	653	
5524	0	655	
5525	0	649	
5526	0	650	
5527	0	653	
5528	0	656	
5529	0	662	
5530	0	661	
5531	0	663	
5532	0	666	
5533	0	670	
5534	0	672	
5535	0	672	
5536	0	672	
5537	0	667	
5538	0	665	
5539	0	665	
5540	0	664	
5541	0	664	
5542	0	653	
5543	0	653	
5544	0	651	
5545	0	646	
5546	0	653	
5547	0	657	
5548	0	654	
5549	0	660	
5550	0	660	
5551	0	661	
5552	0	667	
5553	0	676	
5554	0	672	
5555	0	674	
5556	0	672	
5557	0	672	
5558	0	670	
5559	0	665	
5560	0	657	
5561	0	655	
5562	0	657	
5563	0	650	
5564	0	653	
5565	0	650	
5566	0	655	
5567	0	652	
5568	0	653	
5569	0	658	
5570	0	657	
5571	0	666	
5572	0	671	
5573	0	672	
5574	0	673	
5575	0	675	
5576	0	668	
5577	0	672	
5578	0	665	
5579	0	663	
5580	0	664	
5581	0	657	
5582	0	652	
5583	0	650	
5584	0	651	
5585	0	653	
5586	0	650	
5587	0	655	
5588	0	655	
5589	0	658	
5590	0	667	
5591	0	667	
5592	0	668	
5593	0	673	
5594	0	668	
5595	0	673	
5596	0	672	
5597	0	672	
5598	0	664	
5599	0	667	
5600	0	661	
5601	0	659	
5602	0	650	
5603	0	651	
5604	0	651	
5605	0	648	
5606	0	653	
5607	0	653	
5608	0	659	
5609	0	656	
5610	0	662	
5611	0	665	
5612	0	674	
5613	0	669	
5614	0	669	
5615	0	670	
5616	0	670	
5617	0	668	
5618	0	667	
5619	0	666	
5620	0	660	
5621	0	657	
5622	0	655	
5623	0	648	
5624	0	654	
5625	0	651	
5626	0	651	
5627	0	656	
5628	0	653	
5629	0	660	
5630	0	664	
5631	0	666	
5632	0	666	
5633	0	669	
5634	0	674	
5635	0	673	
5636	0	673	
5637	0	670	
5638	0	666	
5639	0	666	
5640	0	658	
5641	0	658	
5642	0	656	
5643	0	649	
5644	0	649	
5645	0	651	
5646	0	649	
5647	0	657	
5648	0	660	
5649	0	661	
5650	0	661	
5651	0	664	
5652	0	668	
5653	0	672	
5654	0	668	
5655	0	672	
5656	0	671	
5657	0	667	
5658	0	669	
5659	0	664	
5660	0	663	
5661	0	659	
5662	0	652	
5663	0	652	
5664	0	655	
5665	0	651	
5666	0	649	
5667	0	653	
5668	0	655	
5669	0	658	
5670	0	662	
5671	0	665	
5672	0	669	
5673	0	668	
5674	0	670	
5675	0	671	
5676	0	672	
5677	0	671	
5678	0	673	
5679	0	663	
5680	0	661	
5681	0	656	
5682	0	653	
5683	0	650	
5684	0	650	
5685	0	649	
5686	0	649	
5687	0	653	
5688	0	655	
5689	0	657	
5690	0	663	
5691	0	666	
5692	0	667	
5693	0	669	
5694	0	668	
5695	0	672	
5696	0	671	
5697	0	669	
5698	0	667	
5699	0	664	
5700	0	658	
5701	0	657	
5702	0	655	
5703	0	649	
5704	0	655	
5705	0	646	
5706	0	652	
5707	0	656	
5708	0	655	
5709	0	658	
5710	0	660	
5711	0	663	
5712	0	669	
5713	0	671	
5714	0	674	
5715	0	673	
5716	0	675	
5717	0	669	
5718	0	669	
5719	0	662	
5720	0	662	
5721	0	657	
5722	0	655	
5723	0	651	
5724	0	653	
5725	0	649	
5726	0	650	
5727	0	652	
5728	0	654	
5729	0	657	
5730	0	663	
5731	0	664	
5732	0	668	
5733	0	669	
5734	0	675	
5735	0	671	
5736	0	672	
5737	0	672	
5738	0	669	
5739	0	665	
5740	0	661	
5741	0	657	
5742	0	651	
5743	0	653	
5744	0	649	
5745	0	648	
5746	0	652	
5747	0	652	
5748	0	657	
5749	0	660	
5750	0	658	
5751	0	664	
5752	0	668	
5753	0	672	
5754	0	672	
5755	0	671	
5756	0	672	
5757	0	673	
5758	0	668	
5759	0	664	
5760	0	664	
5761	0	657	
5762	0	656	
5763	0	650	
5764	0	649	
5765	0	649	
5766	0	650	
5767	0	652	
5768	0	656	
5769	0	659	
5770	0	654	
5771	0	667	
5772	0	670	
5773	0	669	
5774	0	674	
5775	0	671	
5776	0	672	
5777	0	670	
5778	0	667	
5779	0	664	
5780	0	662	
5781	0	656	
5782	0	655	
5783	0	652	
5784	0	650	
5785	0	651	
5786	0	649	
5787	0	651	
5788	0	658	
5789	0	659	
5790	0	662	
5791	0	665	
5792	0	668	
5793	0	671	
5794	0	672	
5795	0	673	
5796	0	672	
5797	0	670	
5798	0	667	
5799	0	663	
5800	0	663	
5801	0	656	
5802	0	655	
5803	0	653	
5804	0	652	
5805	0	654	
5806	0	653	
5807	0	653	
5808	0	656	
5809	0	663	
5810	0	664	
5811	0	665	
5812	0	670	
5813	0	669	
5814	0	673	
5815	0	675	
5816	0	674	
5817	0	667	
5818	0	667	
5819	0	662	
5820	0	664	
5821	0	658	
5822	0	656	
5823	0	652	
5824	0	652	
5825	0	648	
5826	0	645	
5827	0	652	
5828	0	654	
5829	0	658	
5830	0	662	
5831	0	665	
5832	0	668	
5833	0	669	
5834	0	673	
5835	0	673	
5836	0	669	
5837	0	668	
5838	0	666	
5839	0	664	
5840	0	662	
5841	0	657	
5842	0	652	
5843	0	652	
5844	0	650	
5845	0	649	
5846	0	646	
5847	0	654	
5848	0	658	
5849	0	661	
5850	0	662	
5851	0	667	
5852	0	667	
5853	0	672	
5854	0	674	
5855	0	673	
5856	0	668	
5857	0	670	
5858	0	669	
5859	0	665	
5860	0	661	
5861	0	656	
5862	0	654	
5863	0	650	
5864	0	652	
5865	0	650	
5866	0	651	
5867	0	654	
5868	0	656	
5869	0	659	
5870	0	657	
5871	0	666	
5872	0	668	
5873	0	669	
5874	0	670	
5875	0	670	
5876	0	670	
5877	0	667	
5878	0	667	
5879	0	666	
5880	0	658	
5881	0	659	
5882	0	652	
5883	0	650	
5884	0	648	
5885	0	649	
5886	0	649	
5887	0	650	
5888	0	654	
5889	0	658	
5890	0	661	
5891	0	659	
5892	0	668	
5893	0	670	
5894	0	669	
5895	0	670	
5896	0	670	
5897	0	672	
5898	0	671	
5899	0	665	
5900	0	662	
5901	0	656	
5902	0	649	
5903	0	652	
5904	0	646	
5905	0	650	
5906	0	653	
5907	0	657	
5908	0	656	
5909	0	662	
5910	0	659	
5911	0	663	
5912	0	666	
5913	0	671	
5914	0	673	
5915	0	670	
5916	0	677	
5917	0	669	
5918	0	669	
5919	0	663	
5920	0	661	
5921	0	656	
5922	0	654	
5923	0	652	
5924	0	653	
5925	0	653	
5926	0	650	
5927	0	649	
5928	0	653	
5929	0	656	
5930	0	660	
5931	0	664	
5932	0	670	
5933	0	668	
5934	0	672	
5935	0	673	
5936	0	672	
5937	0	669	
5938	0	667	
5939	0	663	
5940	0	663	
5941	0	656	
5942	0	646	
5943	0	643	
5944	0	646	
5945	0	653	
5946	0	651	
5947	0	651	
5948	0	652	
5949	0	655	
5950	0	662	
5951	0	666	
5952	0	667	
5953	0	669	
5954	0	672	
5955	0	675	
5956	0	672	
5957	0	670	
5958	0	671	
5959	0	664	
5960	0	662	
5961	0	659	
5962	0	652	
5963	0	651	
5964	0	649	
5965	0	645	
5966	0	650	
5967	0	650	
5968	0	658	
5969	0	657	
5970	0	661	
5971	0	663	
5972	0	666	
5973	0	671	
5974	0	672	
5975	0	672	
5976	0	670	
5977	0	668	
5978	0	672	
5979	0	662	
5980	0	664	
5981	0	655	
5982	0	653	
5983	0	651	
5984	0	654	
5985	0	646	
5986	0	649	
5987	0	651	
5988	0	653	
5989	0	661	
5990	0	661	
5991	0	664	
5992	0	667	
5993	0	670	
5994	0	672	
5995	0	673	
5996	0	670	
5997	0	664	
5998	0	669	
5999	0	663	
6000	0	663	
6001	0	657	
6002	0	652	
6003	0	653	
6004	0	648	
6005	0	650	
6006	0	647	
6007	0	652	
6008	0	654	
6009	0	657	
6010	0	659	
6011	0	668	
6012	0	664	
6013	0	671	
6014	0	671	
6015	0	674	
6016	0	671	
6017	0	672	
6018	0	666	
6019	0	663	
6020	0	661	
6021	0	659	
6022	0	651	
6023	0	652	
6024	0	650	
6025	0	646	
6026	0	650	
6027	0	652	
6028	0	654	
6029	0	654	
6030	0	662	
6031	0	667	
6032	0	668	
6033	0	671	
6034	0	672	
6035	0	674	
6036	0	673	
6037	0	670	
6038	0	670	
6039	0	666	
6040	0	661	
6041	0	660	
6042	0	653	
6043	0	651	
6044	0	650	
6045	0	652	
6046	0	653	
6047	0	650	
6048	0	657	
6049	0	659	
6050	0	662	
6051	0	665	
6052	0	671	
6053	0	670	
6054	0	674	
6055	0	674	
6056	0	674	
6057	0	667	
6058	0	668	
6059	0	663	
6060	0	665	
6061	0	659	
6062	0	656	
6063	0	657	
6064	0	651	
6065	0	651	
6066	0	650	
6067	0	655	
6068	0	654	
6069	0	658	
6070	0	661	
6071	0	666	
6072	0	670	
6073	0	670	
6074	0	671	
6075	0	674	
6076	0	671	
6077	0	670	
6078	0	670	
6079	0	665	
6080	0	662	
6081	0	661	
6082	0	652	
6083	0	651	
6084	0	651	
6085	0	651	
6086	0	647	
6087	0	652	
6088	0	656	
6089	0	662	
6090	0	662	
6091	0	666	
6092	0	667	
6093	0	674	
6094	0	670	
6095	0	672	
6096	0	669	
6097	0	670	
6098	0	666	
6099	0	663	
6100	0	658	
6101	0	656	
6102	0	653	
6103	0	651	
6104	0	648	
6105	0	652	
6106	0	653	
6107	0	652	
6108	0	657	
6109	0	662	
6110	0	664	
6111	0	664	
6112	0	667	
6113	0	670	
6114	0	672	
6115	0	673	
6116	0	672	
6117	0	672	
6118	0	668	
6119	0	663	
6120	0	660	
6121	0	656	
6122	0	657	
6123	0	650	
6124	0	649	
6125	0	651	
6126	0	650	
6127	0	656	
6128	0	656	
6129	0	659	
6130	0	664	
6131	0	666	
6132	0	666	
6133	0	671	
6134	0	674	
6135	0	673	
6136	0	672	
6137	0	671	
6138	0	667	
6139	0	666	
6140	0	658	
6141	0	660	
6142	0	657	
6143	0	650	
6144	0	651	
6145	0	654	
6146	0	651	
6147	0	651	
6148	0	655	
6149	0	661	
6150	0	663	
6151	0	665	
6152	0	669	
6153	0	672	
6154	0	674	
6155	0	672	
6156	0	670	
6157	0	674	
6158	0	665	
6159	0	666	
6160	0	661	
6161	0	658	
6162	0	656	
6163	0	655	
6164	0	650	
6165	0	649	
6166	0	648	
6167	0	653	
6168	0	656	
6169	0	654	
6170	0	661	
6171	0	664	
6172	0	670	
6173	0	673	
6174	0	670	
6175	0	668	
6176	0	672	
6177	0	673	
6178	0	665	
6179	0	667	
6180	0	661	
6181	0	659	
6182	0	655	
6183	0	651	
6184	0	650	
6185	0	650	
6186	0	649	
6187	0	650	
6188	0	655	
6189	0	659	
6190	0	664	
6191	0	667	
6192	0	667	
6193	0	671	
6194	0	674	
6195	0	672	
6196	0	673	
6197	0	673	
6198	0	662	
6199	0	664	
6200	0	663	
6201	0	657	
6202	0	655	
6203	0	651	
6204	0	653	
6205	0	650	
6206	0	650	
6207	0	655	
6208	0	654	
6209	0	661	
6210	0	658	
6211	0	666	
6212	0	668	
6213	0	672	
6214	0	670	
6215	0	674	
6216	0	673	
6217	0	672	
6218	0	675	
6219	0	661	
6220	0	660	
6221	0	661	
6222	0	655	
6223	0	652	
6224	0	652	
6225	0	649	
6226	0	653	
6227	0	653	
6228	0	666	
6229	0	660	
6230	0	660	
6231	0	664	
6232	0	670	
6233	0	669	
6234	0	673	
6235	0	675	
6236	0	673	
6237	0	673	
6238	0	670	
6239	0	667	
6240	0	661	
6241	0	659	
6242	0	653	
6243	0	653	
6244	0	647	
6245	0	648	
6246	0	649	
6247	0	646	
6248	0	655	
6249	0	659	
6250	0	658	
6251	0	664	
6252	0	667	
6253	0	671	
6254	0	666	
6255	0	675	
6256	0	673	
6257	0	670	
6258	0	666	
6259	0	665	
6260	0	658	
6261	0	657	
6262	0	653	
6263	0	652	
6264	0	646	
6265	0	651	
6266	0	651	
6267	0	653	
6268	0	653	
6269	0	656	
6270	0	659	
6271	0	666	
6272	0	669	
6273	0	671	
6274	0	674	
6275	0	674	
6276	0	672	
6277	0	672	
6278	0	664	
6279	0	662	
6280	0	665	
6281	0	659	
6282	0	655	
6283	0	652	
6284	0	650	
6285	0	655	
6286	0	655	
6287	0	653	
6288	0	651	
6289	0	659	
6290	0	665	
6291	0	664	
6292	0	669	
6293	0	672	
6294	0	669	
6295	0	667	
6296	0	672	
6297	0	671	
6298	0	665	
6299	0	660	
6300	0	664	
6301	0	658	
6302	0	654	
6303	0	652	
6304	0	652	
6305	0	648	
6306	0	647	
6307	0	652	
6308	0	658	
6309	0	659	
6310	0	665	
6311	0	663	
6312	0	667	
6313	0	672	
6314	0	673	
6315	0	671	
6316	0	672	
6317	0	672	
6318	0	669	
6319	0	663	
6320	0	659	
6321	0	659	
6322	0	650	
6323	0	651	
6324	0	650	
6325	0	653	
6326	0	649	
6327	0	652	
6328	0	658	
6329	0	662	
6330	0	658	
6331	0	664	
6332	0	664	
6333	0	670	
6334	0	669	
6335	0	674	
6336	0	668	
6337	0	665	
6338	0	666	
6339	0	664	
6340	0	659	
6341	0	655	
6342	0	654	
6343	0	650	
6344	0	652	
6345	0	646	
6346	0	650	
6347	0	653	
6348	0	652	
6349	0	656	
6350	0	662	
6351	0	664	
6352	0	666	
6353	0	668	
6354	0	668	
6355	0	670	
6356	0	674	
6357	0	666	
6358	0	666	
6359	0	663	
6360	0	663	
6361	0	659	
6362	0	654	
6363	0	652	
6364	0	649	
6365	0	653	
6366	0	649	
6367	0	651	
6368	0	652	
6369	0	661	
6370	0	659	
6371	0	662	
6372	0	666	
6373	0	668	
6374	0	670	
6375	0	670	
6376	0	671	
6377	0	664	
6378	0	665	
6379	0	664	
6380	0	657	
6381	0	657	
6382	0	657	
6383	0	651	
6384	0	648	
6385	0	648	
6386	0	651	
6387	0	650	
6388	0	653	
6389	0	657	
6390	0	657	
6391	0	663	
6392	0	664	
6393	0	672	
6394	0	670	
6395	0	674	
6396	0	669	
6397	0	668	
6398	0	665	
6399	0	664	
6400	0	662	
6401	0	656	
6402	0	652	
6403	0	651	
6404	0	649	
6405	0	649	
6406	0	650	
6407	0	652	
6408	0	654	
6409	0	658	
6410	0	660	
6411	0	664	
6412	0	665	
6413	0	670	
6414	0	672	
6415	0	671	
6416	0	670	
6417	0	673	
6418	0	664	
6419	0	665	
6420	0	660	
6421	0	655	
6422	0	653	
6423	0	649	
6424	0	652	
6425	0	647	
6426	0	650	
6427	0	651	
6428	0	652	
6429	0	656	
6430	0	661	
6431	0	664	
6432	0	668	
6433	0	670	
6434	0	674	
6435	0	674	
6436	0	670	
6437	0	668	
6438	0	664	
6439	0	665	
6440	0	660	
6441	0	656	
6442	0	654	
6443	0	651	
6444	0	645	
6445	0	649	
6446	0	646	
6447	0	650	
6448	0	655	
6449	0	660	
6450	0	660	
6451	0	663	
6452	0	665	
6453	0	671	
6454	0	671	
6455	0	670	
6456	0	672	
6457	0	668	
6458	0	670	
6459	0	660	
6460	0	664	
6461	0	658	
6462	0	654	
6463	0	651	
6464	0	648	
6465	0	652	
6466	0	646	
6467	0	648	
6468	0	653	
6469	0	659	
6470	0	661	
6471	0	663	
6472	0	667	
6473	0	668	
6474	0	670	
6475	0	670	
6476	0	673	
6477	0	670	
6478	0	667	
6479	0	663	
6480	0	660	
6481	0	661	
6482	0	656	
6483	0	649	
6484	0	649	
6485	0	650	
6486	0	650	
6487	0	652	
6488	0	657	
6489	0	657	
6490	0	657	
6491	0	664	
6492	0	665	
6493	0	669	
6494	0	670	
6495	0	672	
6496	0	671	
6497	0	670	
6498	0	668	
6499	0	666	
6500	0	664	
6501	0	658	
6502	0	655	
6503	0	654	
6504	0	652	
6505	0	650	
6506	0	651	
6507	0	650	
6508	0	657	
6509	0	658	
6510	0	663	
6511	0	662	
6512	0	666	
6513	0	671	
6514	0	673	
6515	0	672	
6516	0	674	
6517	0	671	
6518	0	668	
6519	0	664	
6520	0	660	
6521	0	659	
6522	0	656	
6523	0	654	
6524	0	649	
6525	0	652	
6526	0	652	
6527	0	655	
6528	0	656	
6529	0	655	
6530	0	664	
6531	0	670	
6532	0	669	
6533	0	670	
6534	0	671	
6535	0	674	
6536	0	674	
6537	0	669	
6538	0	670	
6539	0	668	
6540	0	666	
6541	0	660	
6542	0	656	
6543	0	654	
6544	0	656	
6545	0	652	
6546	0	648	
6547	0	652	
6548	0	654	
6549	0	663	
6550	0	662	
6551	0	665	
6552	0	664	
6553	0	672	
6554	0	672	
6555	0	673	
6556	0	672	
6557	0	669	
6558	0	669	
6559	0	661	
6560	0	662	
6561	0	658	
6562	0	660	
6563	0	654	
6564	0	649	
6565	0	650	
6566	0	652	
6567	0	651	
6568	0	654	
6569	0	657	
6570	0	660	
6571	0	666	
6572	0	666	
6573	0	670	
6574	0	673	
6575	0	674	
6576	0	672	
6577	0	673	
6578	0	666	
6579	0	666	
6580	0	664	
6581	0	661	
6582	0	654	
6583	0	650	
6584	0	651	
6585	0	651	
6586	0	649	
6587	0	653	
6588	0	654	
6589	0	659	
6590	0	661	
6591	0	663	
6592	0	673	
6593	0	669	
6594	0	674	
6595	0	674	
6596	0	674	
6597	0	673	
6598	0	665	
6599	0	666	
6600	0	658	
6601	0	654	
6602	0	652	
6603	0	655	
6604	0	651	
6605	0	650	
6606	0	654	
6607	0	651	
6608	0	655	
6609	0	659	
6610	0	663	
6611	0	667	
6612	0	665	
6613	0	670	
6614	0	668	
6615	0	667	
6616	0	670	
6617	0	668	
6618	0	667	
6619	0	664	
6620	0	659	
6621	0	663	
6622	0	657	
6623	0	656	
6624	0	653	
6625	0	653	
6626	0	649	
6627	0	653	
6628	0	656	
6629	0	661	
6630	0	661	
6631	0	665	
6632	0	671	
6633	0	669	
6634	0	673	
6635	0	673	
6636	0	674	
6637	0	673	
6638	0	665	
6639	0	660	
6640	0	667	
6641	0	658	
6642	0	657	
6643	0	655	
6644	0	653	
6645	0	649	
6646	0	650	
6647	0	651	
6648	0	655	
6649	0	648	
6650	0	662	
6651	0	666	
6652	0	664	
6653	0	668	
6654	0	673	
6655	0	671	
6656	0	668	
6657	0	666	
6658	0	670	
6659	0	666	
6660	0	662	
6661	0	663	
6662	0	652	
6663	0	652	
6664	0	649	
6665	0	650	
6666	0	650	
6667	0	650	
6668	0	655	
6669	0	659	
6670	0	659	
6671	0	664	
6672	0	668	
6673	0	670	
6674	0	674	
6675	0	676	
6676	0	674	
6677	0	674	
6678	0	667	
6679	0	663	
6680	0	663	
6681	0	657	
6682	0	652	
6683	0	652	
6684	0	649	
6685	0	650	
6686	0	653	
6687	0	652	
6688	0	660	
6689	0	656	
6690	0	660	
6691	0	663	
6692	0	666	
6693	0	668	
6694	0	670	
6695	0	672	
6696	0	674	
6697	0	666	
6698	0	664	
6699	0	670	
6700	0	660	
6701	0	659	
6702	0	655	
6703	0	653	
6704	0	652	
6705	0	648	
6706	0	650	
6707	0	652	
6708	0	652	
6709	0	658	
6710	0	659	
6711	0	664	
6712	0	663	
6713	0	671	
6714	0	668	
6715	0	675	
6716	0	670	
6717	0	669	
6718	0	668	
6719	0	664	
6720	0	661	
6721	0	658	
6722	0	656	
6723	0	653	
6724	0	652	
6725	0	648	
6726	0	652	
6727	0	650	
6728	0	657	
6729	0	657	
6730	0	660	
6731	0	666	
6732	0	665	
6733	0	664	
6734	0	668	
6735	0	672	
6736	0	670	
6737	0	672	
6738	0	665	
6739	0	665	
6740	0	661	
6741	0	658	
6742	0	654	
6743	0	653	
6744	0	649	
6745	0	648	
6746	0	650	
6747	0	650	
6748	0	653	
6749	0	656	
6750	0	660	
6751	0	659	
6752	0	667	
6753	0	670	
6754	0	671	
6755	0	669	
6756	0	672	
6757	0	672	
6758	0	667	
6759	0	664	
6760	0	665	
6761	0	660	
6762	0	656	
6763	0	649	
6764	0	652	
6765	0	650	
6766	0	650	
6767	0	653	
6768	0	654	
6769	0	660	
6770	0	659	
6771	0	665	
6772	0	667	
6773	0	672	
6774	0	672	
6775	0	671	
6776	0	672	
6777	0	666	
6778	0	668	
6779	0	667	
6780	0	662	
6781	0	659	
6782	0	655	
6783	0	653	
6784	0	652	
6785	0	647	
6786	0	653	
6787	0	651	
6788	0	656	
6789	0	660	
6790	0	658	
6791	0	663	
6792	0	664	
6793	0	671	
6794	0	673	
6795	0	670	
6796	0	672	
6797	0	670	
6798	0	669	
6799	0	666	
6800	0	663	
6801	0	658	
6802	0	653	
6803	0	650	
6804	0	652	
6805	0	650	
6806	0	648	
6807	0	648	
6808	0	648	
6809	0	661	
6810	0	657	
6811	0	665	
6812	0	667	
6813	0	665	
6814	0	673	
6815	0	672	
6816	0	674	
6817	0	670	
6818	0	669	
6819	0	662	
6820	0	664	
6821	0	662	
6822	0	655	
6823	0	653	
6824	0	648	
6825	0	651	
6826	0	652	
6827	0	648	
6828	0	656	
6829	0	659	
6830	0	663	
6831	0	662	
6832	0	668	
6833	0	666	
6834	0	671	
6835	0	668	
6836	0	670	
6837	0	671	
6838	0	670	
6839	0	665	
6840	0	663	
6841	0	660	
6842	0	651	
6843	0	651	
6844	0	649	
6845	0	652	
6846	0	651	
6847	0	650	
6848	0	656	
6849	0	657	
6850	0	660	
6851	0	660	
6852	0	667	
6853	0	669	
6854	0	673	
6855	0	674	
6856	0	673	
6857	0	674	
6858	0	669	
6859	0	665	
6860	0	660	
6861	0	664	
6862	0	653	
6863	0	652	
6864	0	652	
6865	0	648	
6866	0	650	
6867	0	651	
6868	0	653	
6869	0	658	
6870	0	660	
6871	0	663	
6872	0	666	
6873	0	668	
6874	0	671	
6875	0	672	
6876	0	672	
6877	0	665	
6878	0	667	
6879	0	663	
6880	0	658	
6881	0	657	
6882	0	653	
6883	0	653	
6884	0	648	
6885	0	651	
6886	0	650	
6887	0	650	
6888	0	654	
6889	0	652	
6890	0	650	
6891	0	660	
6892	0	668	
6893	0	667	
6894	0	670	
6895	0	665	
6896	0	672	
6897	0	667	
6898	0	671	
6899	0	665	
6900	0	660	
6901	0	658	
6902	0	653	
6903	0	652	
6904	0	651	
6905	0	650	
6906	0	649	
6907	0	652	
6908	0	655	
6909	0	658	
6910	0	662	
6911	0	665	
6912	0	669	
6913	0	671	
6914	0	671	
6915	0	673	
6916	0	670	
6917	0	665	
6918	0	667	
6919	0	666	
6920	0	663	
6921	0	661	
6922	0	655	
6923	0	652	
6924	0	650	
6925	0	649	
6926	0	653	
6927	0	651	
6928	0	653	
6929	0	657	
6930	0	658	
6931	0	660	
6932	0	670	
6933	0	671	
6934	0	671	
6935	0	673	
6936	0	673	
6937	0	669	
6938	0	669	
6939	0	664	
6940	0	660	
6941	0	661	
6942	0	655	
6943	0	652	
6944	0	646	
6945	0	650	
6946	0	645	
6947	0	652	
6948	0	650	
6949	0	656	
6950	0	660	
6951	0	666	
6952	0	662	
6953	0	670	
6954	0	667	
6955	0	675	
6956	0	670	
6957	0	669	
6958	0	666	
6959	0	663	
6960	0	661	
6961	0	658	
6962	0	655	
6963	0	652	
6964	0	646	
6965	0	647	
6966	0	650	
6967	0	653	
6968	0	655	
6969	0	658	
6970	0	663	
6971	0	665	
6972	0	668	
6973	0	670	
6974	0	672	
6975	0	669	
6976	0	669	
6977	0	670	
6978	0	666	
6979	0	665	
6980	0	663	
6981	0	657	
6982	0	658	
6983	0	655	
6984	0	648	
6985	0	650	
6986	0	646	
6987	0	650	
6988	0	652	
6989	0	658	
6990	0	663	
6991	0	665	
6992	0	668	
6993	0	672	
6994	0	670	
6995	0	674	
6996	0	674	
6997	0	671	
6998	0	668	
6999	0	665	
7000	0	658	
7001	0	658	
7002	0	658	
7003	0	650	
7004	0	654	
7005	0	650	
7006	0	649	
7007	0	649	
7008	0	655	
7009	0	655	
7010	0	656	
7011	0	667	
7012	0	666	
7013	0	668	
7014	0	674	
7015	0	672	
7016	0	673	
7017	0	669	
7018	0	672	
7019	0	665	
7020	0	661	
7021	0	659	
7022	0	659	
7023	0	652	
7024	0	653	
7025	0	649	
7026	0	649	
7027	0	656	
7028	0	652	
7029	0	658	
7030	0	661	
7031	0	663	
7032	0	667	
7033	0	667	
7034	0	668	
7035	0	669	
7036	0	672	
7037	0	673	
7038	0	664	
7039	0	662	
7040	0	662	
7041	0	657	
7042	0	655	
7043	0	649	
7044	0	650	
7045	0	648	
7046	0	648	
7047	0	648	
7048	0	654	
7049	0	658	
7050	0	664	
7051	0	663	
7052	0	666	
7053	0	668	
7054	0	673	
7055	0	668	
7056	0	665	
7057	0	670	
7058	0	668	
7059	0	664	
7060	0	662	
7061	0	656	
7062	0	656	
7063	0	651	
7064	0	649	
7065	0	648	
7066	0	646	
7067	0	651	
7068	0	654	
7069	0	656	
7070	0	658	
7071	0	661	
7072	0	664	
7073	0	668	
7074	0	672	
7075	0	671	
7076	0	667	
7077	0	666	
7078	0	669	
7079	0	665	
7080	0	661	
7081	0	656	
7082	0	653	
7083	0	648	
7084	0	652	
7085	0	648	
7086	0	646	
7087	0	652	
7088	0	652	
7089	0	658	
7090	0	657	
7091	0	662	
7092	0	662	
7093	0	670	
7094	0	671	
7095	0	678	
7096	0	670	
7097	0	670	
7098	0	664	
7099	0	666	
7100	0	661	
7101	0	659	
7102	0	654	
7103	0	649	
7104	0	642	
7105	0	646	
7106	0	650	
7107	0	651	
7108	0	655	
7109	0	654	
7110	0	659	
7111	0	665	
7112	0	666	
7113	0	667	
7114	0	668	
7115	0	672	
7116	0	671	
7117	0	667	
7118	0	670	
7119	0	661	
7120	0	660	
7121	0	660	
7122	0	649	
7123	0	649	
7124	0	649	
7125	0	650	
7126	0	650	
7127	0	648	
7128	0	656	
7129	0	655	
7130	0	662	
7131	0	662	
7132	0	670	
7133	0	668	
7134	0	671	
7135	0	667	
7136	0	670	
7137	0	671	
7138	0	670	
7139	0	661	
7140	0	663	
7141	0	659	
7142	0	657	
7143	0	649	
7144	0	650	
7145	0	647	
7146	0	648	
7147	0	651	
7148	0	647	
7149	0	656	
7150	0	657	
7151	0	664	
7152	0	663	
7153	0	670	
7154	0	666	
7155	0	669	
7156	0	671	
7157	0	671	
7158	0	668	
7159	0	668	
7160	0	661	
7161	0	660	
7162	0	656	
7163	0	650	
7164	0	649	
7165	0	649	
7166	0	645	
7167	0	656	
7168	0	654	
7169	0	656	
7170	0	659	
7171	0	664	
7172	0	668	
7173	0	665	
7174	0	669	
7175	0	671	
7176	0	671	
7177	0	669	
7178	0	665	
7179	0	664	
7180	0	664	
7181	0	658	
7182	0	656	
7183	0	653	
7184	0	648	
7185	0	647	
7186	0	650	
7187	0	650	
7188	0	654	
7189	0	653	
7190	0	657	
7191	0	657	
7192	0	667	
7193	0	666	
7194	0	668	
7195	0	670	
7196	0	670	
7197	0	668	
7198	0	663	
7199	0	665	
7200	0	660	
7201	0	662	
7202	0	655	
7203	0	650	
7204	0	649	
7205	0	651	
7206	0	647	
7207	0	650	
7208	0	651	
7209	0	656	
7210	0	657	
7211	0	660	
7212	0	665	
7213	0	667	
7214	0	668	
7215	0	670	
7216	0	672	
7217	0	669	
7218	0	668	
7219	0	665	
7220	0	661	
7221	0	657	
7222	0	658	
7223	0	652	
7224	0	649	
7225	0	650	
7226	0	648	
7227	0	649	
7228	0	653	
7229	0	654	
7230	0	660	
7231	0	659	
7232	0	664	
7233	0	667	
7234	0	670	
7235	0	670	
7236	0	672	
7237	0	668	
7238	0	667	
7239	0	664	
7240	0	664	
7241	0	657	
7242	0	655	
7243	0	651	
7244	0	650	
7245	0	648	
7246	0	649	
7247	0	651	
7248	0	653	
7249	0	655	
7250	0	659	
7251	0	659	
7252	0	667	
7253	0	667	
7254	0	669	
7255	0	671	
7256	0	672	
7257	0	670	
7258	0	670	
7259	0	667	
7260	0	662	
7261	0	659	
7262	0	652	
7263	0	652	
7264	0	650	
7265	0	651	
7266	0	648	
7267	0	654	
7268	0	655	
7269	0	654	
7270	0	658	
7271	0	662	
7272	0	664	
7273	0	670	
7274	0	673	
7275	0	671	
7276	0	669	
7277	0	668	
7278	0	666	
7279	0	664	
7280	0	662	
7281	0	661	
7282	0	654	
7283	0	656	
7284	0	648	
7285	0	651	
7286	0	652	
7287	0	652	
7288	0	652	
7289	0	653	
7290	0	659	
7291	0	665	
7292	0	664	
7293	0	667	
7294	0	671	
7295	0	667	
7296	0	669	
7297	0	671	
7298	0	665	
7299	0	663	
7300	0	662	
7301	0	653	
7302	0	656	
7303	0	653	
7304	0	649	
7305	0	648	
7306	0	644	
7307	0	649	
7308	0	656	
7309	0	657	
7310	0	659	
7311	0	671	
7312	0	665	
7313	0	667	
7314	0	674	
7315	0	668	
7316	0	671	
7317	0	671	
7318	0	666	
7319	0	665	
7320	0	666	
7321	0	658	
7322	0	655	
7323	0	647	
7324	0	653	
7325	0	648	
7326	0	648	
7327	0	651	
7328	0	649	
7329	0	654	
7330	0	655	
7331	0	659	
7332	0	668	
7333	0	670	
7334	0	671	
7335	0	670	
7336	0	672	
7337	0	673	
7338	0	667	
7339	0	664	
7340	0	662	
7341	0	657	
7342	0	652	
7343	0	652	
7344	0	650	
7345	0	646	
7346	0	647	
7347	0	651	
7348	0	643	
7349	0	653	
7350	0	661	
7351	0	660	
7352	0	667	
7353	0	663	
7354	0	669	
7355	0	668	
7356	0	670	
7357	0	667	
7358	0	668	
7359	0	662	
7360	0	664	
7361	0	657	
7362	0	658	
7363	0	652	
7364	0	651	
7365	0	647	
7366	0	651	
7367	0	649	
7368	0	653	
7369	0	653	
7370	0	661	
7371	0	660	
7372	0	669	
7373	0	672	
7374	0	673	
7375	0	669	
7376	0	670	
7377	0	671	
7378	0	667	
7379	0	669	
7380	0	662	
7381	0	660	
7382	0	656	
7383	0	653	
7384	0	647	
7385	0	653	
7386	0	653	
7387	0	651	
7388	0	652	
7389	0	652	
7390	0	659	
7391	0	661	
7392	0	670	
7393	0	669	
7394	0	675	
7395	0	670	
7396	0	671	
7397	0	672	
7398	0	667	
7399	0	665	
7400	0	665	
7401	0	660	
7402	0	655	
7403	0	654	
7404	0	652	
7405	0	649	
7406	0	650	
7407	0	651	
7408	0	652	
7409	0	655	
7410	0	659	
7411	0	667	
7412	0	667	
7413	0	668	
7414	0	668	
7415	0	674	
7416	0	672	
7417	0	673	
7418	0	670	
7419	0	662	
7420	0	661	
7421	0	659	
7422	0	658	
7423	0	654	
7424	0	650	
7425	0	649	
7426	0	650	
7427	0	650	
7428	0	651	
7429	0	656	
7430	0	659	
7431	0	662	
7432	0	666	
7433	0	668	
7434	0	673	
7435	0	672	
7436	0	670	
7437	0	668	
7438	0	667	
7439	0	665	
7440	0	665	
7441	0	660	
7442	0	655	
7443	0	649	
7444	0	646	
7445	0	649	
7446	0	648	
7447	0	650	
7448	0	654	
7449	0	657	
7450	0	662	
7451	0	661	
7452	0	665	
7453	0	670	
7454	0	669	
7455	0	667	
7456	0	670	
7457	0	671	
7458	0	668	
7459	0	663	
7460	0	661	
7461	0	658	
7462	0	656	
7463	0	650	
7464	0	649	
7465	0	649	
7466	0	652	
7467	0	649	
7468	0	654	
7469	0	657	
7470	0	659	
7471	0	662	
7472	0	664	
7473	0	671	
7474	0	672	
7475	0	669	
7476	0	673	
7477	0	670	
7478	0	666	
7479	0	661	
7480	0	666	
7481	0	660	
7482	0	658	
7483	0	652	
7484	0	648	
7485	0	650	
7486	0	648	
7487	0	648	
7488	0	654	
7489	0	654	
7490	0	659	
7491	0	661	
7492	0	666	
7493	0	666	
7494	0	665	
7495	0	672	
7496	0	672	
7497	0	673	
7498	0	667	
7499	0	665	
7500	0	666	
7501	0	659	
7502	0	656	
7503	0	653	
7504	0	651	
7505	0	652	
7506	0	650	
7507	0	649	
7508	0	653	
7509	0	652	
7510	0	660	
7511	0	662	
7512	0	670	
7513	0	669	
7514	0	670	
7515	0	673	
7516	0	673	
7517	0	673	
7518	0	671	
7519	0	664	
7520	0	665	
7521	0	659	
7522	0	656	
7523	0	653	
7524	0	650	
7525	0	648	
7526	0	650	
7527	0	650	
7528	0	651	
7529	0	658	
7530	0	659	
7531	0	665	
7532	0	665	
7533	0	673	
7534	0	668	
7535	0	667	
7536	0	670	
7537	0	670	
7538	0	666	
7539	0	664	
7540	0	662	
7541	0	660	
7542	0	652	
7543	0	652	
7544	0	650	
7545	0	652	
7546	0	652	
7547	0	652	
7548	0	652	
7549	0	655	
7550	0	662	
7551	0	664	
7552	0	668	
7553	0	672	
7554	0	673	
7555	0	676	
7556	0	670	
7557	0	672	
7558	0	668	
7559	0	667	
7560	0	665	
7561	0	658	
7562	0	656	
7563	0	654	
7564	0	652	
7565	0	646	
7566	0	652	
7567	0	650	
7568	0	653	
7569	0	656	
7570	0	658	
7571	0	663	
7572	0	663	
7573	0	671	
7574	0	673	
7575	0	673	
7576	0	673	
7577	0	671	
7578	0	670	
7579	0	668	
7580	0	665	
7581	0	664	
7582	0	657	
7583	0	650	
7584	0	653	
7585	0	650	
7586	0	650	
7587	0	654	
7588	0	647	
7589	0	657	
7590	0	651	
7591	0	659	
7592	0	667	
7593	0	668	
7594	0	671	
7595	0	672	
7596	0	675	
7597	0	671	
7598	0	662	
7599	0	668	
7600	0	664	
7601	0	662	
7602	0	656	
7603	0	656	
7604	0	652	
7605	0	648	
7606	0	650	
7607	0	651	
7608	0	650	
7609	0	656	
7610	0	660	
7611	0	659	
7612	0	662	
7613	0	666	
7614	0	671	
7615	0	669	
7616	0	671	
7617	0	671	
7618	0	668	
7619	0	666	
7620	0	664	
7621	0	661	
7622	0	658	
7623	0	650	
7624	0	653	
7625	0	650	
7626	0	650	
7627	0	649	
7628	0	650	
7629	0	654	
7630	0	657	
7631	0	662	
7632	0	664	
7633	0	666	
7634	0	674	
7635	0	671	
7636	0	671	
7637	0	669	
7638	0	667	
7639	0	665	
7640	0	662	
7641	0	660	
7642	0	661	
7643	0	654	
7644	0	654	
7645	0	647	
7646	0	652	
7647	0	650	
7648	0	654	
7649	0	654	
7650	0	662	
7651	0	661	
7652	0	661	
7653	0	668	
7654	0	672	
7655	0	670	
7656	0	672	
7657	0	671	
7658	0	667	
7659	0	664	
7660	0	664	
7661	0	660	
7662	0	654	
7663	0	653	
7664	0	656	
7665	0	651	
7666	0	650	
7667	0	652	
7668	0	653	
7669	0	651	
7670	0	656	
7671	0	662	
7672	0	661	
7673	0	667	
7674	0	671	
7675	0	672	
7676	0	673	
7677	0	671	
7678	0	671	
7679	0	662	
7680	0	662	
7681	0	658	
7682	0	656	
7683	0	653	
7684	0	652	
7685	0	652	
7686	0	649	
7687	0	652	
7688	0	652	
7689	0	656	
7690	0	655	
7691	0	659	
7692	0	666	
7693	0	668	
7694	0	671	
7695	0	673	
7696	0	671	
7697	0	671	
7698	0	669	
7699	0	668	
7700	0	665	
7701	0	662	
7702	0	657	
7703	0	656	
7704	0	650	
7705	0	650	
7706	0	649	
7707	0	648	
7708	0	650	
7709	0	655	
7710	0	661	
7711	0	665	
7712	0	667	
7713	0	667	
7714	0	670	
7715	0	671	
7716	0	673	
7717	0	668	
7718	0	672	
7719	0	668	
7720	0	664	
7721	0	662	
7722	0	658	
7723	0	656	
7724	0	651	
7725	0	647	
7726	0	650	
7727	0	647	
7728	0	651	
7729	0	652	
7730	0	658	
7731	0	661	
7732	0	663	
7733	0	671	
7734	0	669	
7735	0	671	
7736	0	672	
7737	0	669	
7738	0	673	
7739	0	668	
7740	0	665	
7741	0	660	
7742	0	658	
7743	0	655	
7744	0	654	
7745	0	649	
7746	0	651	
7747	0	654	
7748	0	655	
7749	0	656	
7750	0	661	
7751	0	662	
7752	0	667	
7753	0	669	
7754	0	672	
7755	0	673	
7756	0	673	
7757	0	669	
7758	0	668	
7759	0	667	
7760	0	663	
7761	0	659	
7762	0	658	
7763	0	654	
7764	0	650	
7765	0	649	
7766	0	649	
7767	0	657	
7768	0	651	
7769	0	660	
7770	0	659	
7771	0	663	
7772	0	667	
7773	0	667	
7774	0	671	
7775	0	671	
7776	0	668	
7777	0	668	
7778	0	669	
7779	0	666	
7780	0	662	
7781	0	659	
7782	0	660	
7783	0	652	
7784	0	650	
7785	0	654	
7786	0	653	
7787	0	654	
7788	0	652	
7789	0	655	
7790	0	659	
7791	0	660	
7792	0	665	
7793	0	667	
7794	0	669	
7795	0	669	
7796	0	672	
7797	0	663	
7798	0	672	
7799	0	665	
7800	0	663	
7801	0	658	
7802	0	656	
7803	0	654	
7804	0	651	
7805	0	649	
7806	0	647	
7807	0	648	
7808	0	650	
7809	0	653	
7810	0	658	
7811	0	658	
7812	0	666	
7813	0	667	
7814	0	673	
7815	0	667	
7816	0	672	
7817	0	674	
7818	0	670	
7819	0	665	
7820	0	664	
7821	0	659	
7822	0	657	
7823	0	654	
7824	0	650	
7825	0	648	
7826	0	651	
7827	0	654	
7828	0	654	
7829	0	659	
7830	0	655	
7831	0	655	
7832	0	666	
7833	0	670	
7834	0	667	
7835	0	672	
7836	0	665	
7837	0	674	
7838	0	664	
7839	0	663	
7840	0	666	
7841	0	661	
7842	0	656	
7843	0	657	
7844	0	649	
7845	0	647	
7846	0	648	
7847	0	649	
7848	0	651	
7849	0	654	
7850	0	660	
7851	0	660	
7852	0	666	
7853	0	665	
7854	0	668	
7855	0	673	
7856	0	671	
7857	0	672	
7858	0	670	
7859	0	667	
7860	0	663	
7861	0	657	
7862	0	659	
7863	0	651	
7864	0	650	
7865	0	647	
7866	0	649	
7867	0	650	
7868	0	654	
7869	0	650	
7870	0	658	
7871	0	661	
7872	0	667	
7873	0	671	
7874	0	669	
7875	0	672	
7876	0	673	
7877	0	670	
7878	0	670	
7879	0	666	
7880	0	664	
7881	0	658	
7882	0	655	
7883	0	658	
7884	0	650	
7885	0	654	
7886	0	650	
7887	0	647	
7888	0	650	
7889	0	655	
7890	0	656	
7891	0	662	
7892	0	662	
7893	0	663	
7894	0	669	
7895	0	670	
7896	0	671	
7897	0	671	
7898	0	668	
7899	0	666	
7900	0	664	
7901	0	663	
7902	0	655	
7903	0	655	
7904	0	650	
7905	0	649	
7906	0	651	
7907	0	648	
7908	0	653	
7909	0	651	
7910	0	657	
7911	0	659	
7912	0	665	
7913	0	666	
7914	0	668	
7915	0	669	
7916	0	670	
7917	0	672	
7918	0	666	
7919	0	662	
7920	0	660	
7921	0	661	
7922	0	655	
7923	0	652	
7924	0	650	
7925	0	648	
7926	0	650	
7927	0	647	
7928	0	653	
7929	0	650	
7930	0	654	
7931	0	661	
7932	0	663	
7933	0	665	
7934	0	670	
7935	0	674	
7936	0	671	
7937	0	670	
7938	0	667	
7939	0	664	
7940	0	661	
7941	0	664	
7942	0	657	
7943	0	654	
7944	0	651	
7945	0	649	
7946	0	649	
7947	0	644	
7948	0	652	
7949	0	654	
7950	0	656	
7951	0	663	
7952	0	665	
7953	0	667	
7954	0	669	
7955	0	673	
7956	0	671	
7957	0	670	
7958	0	668	
7959	0	665	
7960	0	664	
7961	0	661	
7962	0	656	
7963	0	653	
7964	0	649	
7965	0	646	
7966	0	645	
7967	0	647	
7968	0	649	
7969	0	654	
7970	0	658	
7971	0	660	
7972	0	663	
7973	0	667	
7974	0	668	
7975	0	669	
7976	0	670	
7977	0	670	
7978	0	669	
7979	0	665	
7980	0	666	
7981	0	659	
7982	0	658	
7983	0	654	
7984	0	646	
7985	0	649	
7986	0	646	
7987	0	652	
7988	0	651	
7989	0	656	
7990	0	658	
7991	0	664	
7992	0	665	
7993	0	670	
7994	0	668	
7995	0	667	
7996	0	671	
7997	0	669	
7998	0	670	
7999	0	665	
8000	0	664	
8001	0	661	
8002	0	658	
8003	0	659	
8004	0	655	
8005	0	652	
8006	0	652	
8007	0	649	
8008	0	652	
8009	0	656	
8010	0	657	
8011	0	664	
8012	0	664	
8013	0	669	
8014	0	669	
8015	0	672	
8016	0	674	
8017	0	675	
8018	0	669	
8019	0	668	
8020	0	662	
8021	0	661	
8022	0	654	
8023	0	654	
8024	0	653	
8025	0	647	
8026	0	650	
8027	0	650	
8028	0	653	
8029	0	653	
8030	0	658	
8031	0	660	
8032	0	663	
8033	0	672	
8034	0	670	
8035	0	669	
8036	0	673	
8037	0	669	
8038	0	667	
8039	0	666	
8040	0	666	
8041	0	661	
8042	0	661	
8043	0	655	
8044	0	650	
8045	0	651	
8046	0	648	
8047	0	652	
8048	0	652	
8049	0	653	
8050	0	648	
8051	0	662	
8052	0	663	
8053	0	667	
8054	0	666	
8055	0	673	
8056	0	672	
8057	0	669	
8058	0	673	
8059	0	668	
8060	0	663	
8061	0	659	
8062	0	658	
8063	0	653	
8064	0	651	
8065	0	649	
8066	0	650	
8067	0	645	
8068	0	655	
8069	0	656	
8070	0	658	
8071	0	661	
8072	0	662	
8073	0	668	
8074	0	671	
8075	0	669	
8076	0	668	
8077	0	669	
8078	0	672	
8079	0	667	
8080	0	659	
8081	0	655	
8082	0	658	
8083	0	650	
8084	0	652	
8085	0	649	
8086	0	647	
8087	0	653	
8088	0	658	
8089	0	653	
8090	0	657	
8091	0	661	
8092	0	664	
8093	0	668	
8094	0	669	
8095	0	675	
8096	0	671	
8097	0	672	
8098	0	669	
8099	0	671	
8100	0	658	
8101	0	660	
8102	0	656	
8103	0	652	
8104	0	650	
8105	0	648	
8106	0	645	
8107	0	648	
8108	0	651	
8109	0	652	
8110	0	657	
8111	0	659	
8112	0	663	
8113	0	667	
8114	0	672	
8115	0	677	
8116	0	673	
8117	0	673	
8118	0	672	
8119	0	665	
8120	0	665	
8121	0	660	
8122	0	651	
8123	0	653	
8124	0	648	
8125	0	652	
8126	0	645	
8127	0	649	
8128	0	650	
8129	0	655	
8130	0	658	
8131	0	661	
8132	0	664	
8133	0	667	
8134	0	666	
8135	0	669	
8136	0	669	
8137	0	668	
8138	0	669	
8139	0	666	
8140	0	661	
8141	0	663	
8142	0	655	
8143	0	656	
8144	0	652	
8145	0	647	
8146	0	650	
8147	0	650	
8148	0	648	
8149	0	654	
8150	0	656	
8151	0	657	
8152	0	663	
8153	0	668	
8154	0	668	
8155	0	670	
8156	0	669	
8157	0	670	
8158	0	672	
8159	0	667	
8160	0	664	
8161	0	662	
8162	0	656	
8163	0	653	
8164	0	649	
8165	0	647	
8166	0	650	
8167	0	651	
8168	0	652	
8169	0	654	
8170	0	653	
8171	0	660	
8172	0	663	
8173	0	668	
8174	0	668	
8175	0	670	
8176	0	668	
8177	0	671	
8178	0	669	
8179	0	665	
8180	0	664	
8181	0	657	
8182	0	656	
8183	0	654	
8184	0	652	
8185	0	649	
8186	0	648	
8187	0	646	
8188	0	650	
8189	0	651	
8190	0	658	
8191	0	660	
8192	0	664	
8193	0	668	
8194	0	665	
8195	0	670	
8196	0	672	
8197	0	671	
8198	0	670	
8199	0	665	
8200	0	663	
8201	0	662	
8202	0	657	
8203	0	654	
8204	0	653	
8205	0	646	
8206	0	648	
8207	0	648	
8208	0	652	
8209	0	655	
8210	0	659	
8211	0	665	
8212	0	666	
8213	0	668	
8214	0	670	
8215	0	670	
8216	0	674	
8217	0	672	
8218	0	669	
8219	0	667	
8220	0	662	
8221	0	661	
8222	0	656	
8223	0	650	
8224	0	650	
8225	0	648	
8226	0	651	
8227	0	648	
8228	0	653	
8229	0	653	
8230	0	660	
8231	0	660	
8232	0	666	
8233	0	668	
8234	0	669	
8235	0	672	
8236	0	668	
8237	0	673	
8238	0	668	
8239	0	667	
8240	0	661	
8241	0	662	
8242	0	659	
8243	0	654	
8244	0	651	
8245	0	649	
8246	0	649	
8247	0	650	
8248	0	648	
8249	0	654	
8250	0	656	
8251	0	665	
8252	0	666	
8253	0	671	
8254	0	670	
8255	0	674	
8256	0	670	
8257	0	671	
8258	0	667	
8259	0	667	
8260	0	666	
8261	0	659	
8262	0	657	
8263	0	655	
8264	0	653	
8265	0	650	
8266	0	651	
8267	0	650	
8268	0	651	
8269	0	652	
8270	0	656	
8271	0	664	
8272	0	656	
8273	0	668	
8274	0	666	
8275	0	673	
8276	0	671	
8277	0	670	
8278	0	669	
8279	0	667	
8280	0	664	
8281	0	662	
8282	0	657	
8283	0	656	
8284	0	653	
8285	0	656	
8286	0	653	
8287	0	649	
8288	0	652	
8289	0	655	
8290	0	658	
8291	0	659	
8292	0	665	
8293	0	666	
8294	0	672	
8295	0	670	
8296	0	675	
8297	0	673	
8298	0	670	
8299	0	662	
8300	0	664	
8301	0	659	
8302	0	658	
8303	0	654	
8304	0	649	
8305	0	654	
8306	0	647	
8307	0	648	
8308	0	649	
8309	0	652	
8310	0	660	
8311	0	662	
8312	0	663	
8313	0	668	
8314	0	668	
8315	0	670	
8316	0	668	
8317	0	670	
8318	0	670	
8319	0	667	
8320	0	665	
8321	0	661	
8322	0	657	
8323	0	653	
8324	0	649	
8325	0	648	
8326	0	646	
8327	0	649	
8328	0	649	
8329	0	656	
8330	0	656	
8331	0	660	
8332	0	664	
8333	0	665	
8334	0	668	
8335	0	671	
8336	0	675	
8337	0	673	
8338	0	668	
8339	0	670	
8340	0	664	
8341	0	660	
8342	0	656	
8343	0	657	
8344	0	649	
8345	0	648	
8346	0	650	
8347	0	653	
8348	0	652	
8349	0	652	
8350	0	657	
8351	0	663	
8352	0	660	
8353	0	665	
8354	0	671	
8355	0	673	
8356	0	672	
8357	0	672	
8358	0	672	
8359	0	668	
8360	0	663	
8361	0	660	
8362	0	659	
8363	0	653	
8364	0	651	
8365	0	651	
8366	0	649	
8367	0	648	
8368	0	650	
8369	0	655	
8370	0	658	
8371	0	658	
8372	0	661	
8373	0	666	
8374	0	668	
8375	0	672	
8376	0	667	
8377	0	673	
8378	0	671	
8379	0	669	
8380	0	667	
8381	0	661	
8382	0	659	
8383	0	657	
8384	0	658	
8385	0	654	
8386	0	652	
8387	0	651	
8388	0	654	
8389	0	657	
8390	0	659	
8391	0	662	
8392	0	666	
8393	0	671	
8394	0	676	
8395	0	672	
8396	0	675	
8397	0	676	
8398	0	673	
8399	0	668	
8400	0	667	
8401	0	662	
8402	0	658	
8403	0	655	
8404	0	653	
8405	0	653	
8406	0	648	
8407	0	647	
8408	0	650	
8409	0	656	
8410	0	658	
8411	0	661	
8412	0	664	
8413	0	669	
8414	0	671	
8415	0	673	
8416	0	672	
8417	0	671	
8418	0	667	
8419	0	668	
8420	0	661	
8421	0	662	
8422	0	658	
8423	0	654	
8424	0	650	
8425	0	649	
8426	0	652	
8427	0	649	
8428	0	650	
8429	0	653	
8430	0	660	
8431	0	663	
8432	0	664	
8433	0	664	
8434	0	671	
8435	0	671	
8436	0	673	
8437	0	671	
8438	0	667	
8439	0	667	
8440	0	663	
8441	0	661	
8442	0	657	
8443	0	652	
8444	0	651	
8445	0	650	
8446	0	646	
8447	0	651	
8448	0	652	
8449	0	654	
8450	0	656	
8451	0	661	
8452	0	660	
8453	0	671	
8454	0	667	
8455	0	674	
8456	0	672	
8457	0	672	
8458	0	666	
8459	0	670	
8460	0	661	
8461	0	662	
8462	0	656	
8463	0	656	
8464	0	648	
8465	0	651	
8466	0	648	
8467	0	650	
8468	0	646	
8469	0	650	
8470	0	653	
8471	0	659	
8472	0	664	
8473	0	667	
8474	0	670	
8475	0	671	
8476	0	669	
8477	0	667	
8478	0	669	
8479	0	666	
8480	0	664	
8481	0	660	
8482	0	654	
8483	0	653	
8484	0	654	
8485	0	654	
8486	0	649	
8487	0	648	
8488	0	651	
8489	0	658	
8490	0	656	
8491	0	659	
8492	0	663	
8493	0	669	
8494	0	669	
8495	0	671	
8496	0	671	
8497	0	675	
8498	0	671	
8499	0	666	
8500	0	660	
8501	0	666	
8502	0	660	
8503	0	657	
8504	0	654	
8505	0	650	
8506	0	650	
8507	0	649	
8508	0	651	
8509	0	656	
8510	0	655	
8511	0	662	
8512	0	669	
8513	0	667	
8514	0	671	
8515	0	668	
8516	0	672	
8517	0	671	
8518	0	671	
8519	0	668	
8520	0	667	
8521	0	667	
8522	0	656	
8523	0	652	
8524	0	652	
8525	0	654	
8526	0	648	
8527	0	652	
8528	0	657	
8529	0	653	
8530	0	654	
8531	0	661	
8532	0	665	
8533	0	668	
8534	0	673	
8535	0	664	
8536	0	675	
8537	0	669	
8538	0	674	
8539	0	671	
8540	0	668	
8541	0	658	
8542	0	659	
8543	0	653	
8544	0	648	
8545	0	648	
8546	0	650	
8547	0	658	
8548	0	651	
8549	0	656	
8550	0	654	
8551	0	663	
8552	0	668	
8553	0	672	
8554	0	673	
8555	0	674	
8556	0	673	
8557	0	670	
8558	0	670	
8559	0	669	
8560	0	666	
8561	0	665	
8562	0	661	
8563	0	656	
8564	0	652	
8565	0	650	
8566	0	652	
8567	0	653	
8568	0	657	
8569	0	658	
8570	0	660	
8571	0	663	
8572	0	665	
8573	0	667	
8574	0	669	
8575	0	671	
8576	0	677	
8577	0	671	
8578	0	675	
8579	0	671	
8580	0	669	
8581	0	664	
8582	0	657	
8583	0	658	
8584	0	657	
8585	0	652	
8586	0	651	
8587	0	651	
8588	0	650	
8589	0	656	
8590	0	657	
8591	0	663	
8592	0	664	
8593	0	669	
8594	0	670	
8595	0	674	
8596	0	671	
8597	0	671	
8598	0	669	
8599	0	669	
8600	0	663	
8601	0	661	
8602	0	658	
8603	0	653	
8604	0	652	
8605	0	651	
8606	0	651	
8607	0	646	
8608	0	651	
8609	0	655	
8610	0	655	
8611	0	657	
8612	0	665	
8613	0	664	
8614	0	668	
8615	0	672	
8616	0	672	
8617	0	670	
8618	0	671	
8619	0	669	
8620	0	665	
8621	0	660	
8622	0	656	
8623	0	654	
8624	0	649	
8625	0	650	
8626	0	651	
8627	0	648	
8628	0	649	
8629	0	653	
8630	0	661	
8631	0	659	
8632	0	664	
8633	0	669	
8634	0	668	
8635	0	668	
8636	0	670	
8637	0	674	
8638	0	670	
8639	0	666	
8640	0	665	
8641	0	665	
8642	0	656	
8643	0	655	
8644	0	648	
8645	0	647	
8646	0	650	
8647	0	649	
8648	0	648	
8649	0	651	
8650	0	655	
8651	0	656	
8652	0	662	
8653	0	666	
8654	0	668	
8655	0	670	
8656	0	669	
8657	0	670	
8658	0	671	
8659	0	666	
8660	0	665	
8661	0	661	
8662	0	660	
8663	0	656	
8664	0	651	
8665	0	647	
8666	0	652	
8667	0	650	
8668	0	650	
8669	0	651	
8670	0	657	
8671	0	656	
8672	0	666	
8673	0	668	
8674	0	670	
8675	0	667	
8676	0	673	
8677	0	669	
8678	0	671	
8679	0	664	
8680	0	663	
8681	0	660	
8682	0	662	
8683	0	654	
8684	0	650	
8685	0	650	
8686	0	649	
8687	0	652	
8688	0	652	
8689	0	652	
8690	0	659	
8691	0	658	
8692	0	661	
8693	0	666	
8694	0	669	
8695	0	673	
8696	0	669	
8697	0	674	
8698	0	665	
8699	0	670	
8700	0	662	
8701	0	667	
8702	0	658	
8703	0	654	
8704	0	651	
8705	0	650	
8706	0	647	
8707	0	653	
8708	0	653	
8709	0	655	
8710	0	656	
8711	0	656	
8712	0	661	
8713	0	668	
8714	0	665	
8715	0	671	
8716	0	674	
8717	0	667	
8718	0	673	
8719	0	667	
8720	0	663	
8721	0	661	
8722	0	660	
8723	0	655	
8724	0	649	
8725	0	652	
8726	0	648	
8727	0	649	
8728	0	652	
8729	0	649	
8730	0	660	
8731	0	660	
8732	0	664	
8733	0	666	
8734	0	668	
8735	0	668	
8736	0	672	
8737	0	674	
8738	0	671	
8739	0	668	
8740	0	663	
8741	0	662	
8742	0	663	
8743	0	657	
8744	0	646	
8745	0	652	
8746	0	650	
8747	0	653	
8748	0	650	
8749	0	653	
8750	0	660	
8751	0	660	
8752	0	664	
8753	0	668	
8754	0	672	
8755	0	673	
8756	0	672	
8757	0	674	
8758	0	669	
8759	0	668	
8760	0	667	
8761	0	659	
8762	0	656	
8763	0	655	
8764	0	656	
8765	0	650	
8766	0	653	
8767	0	648	
8768	0	652	
8769	0	654	
8770	0	657	
8771	0	659	
8772	0	665	
8773	0	669	
8774	0	670	
8775	0	674	
8776	0	671	
8777	0	670	
8778	0	666	
8779	0	668	
8780	0	663	
8781	0	665	
8782	0	660	
8783	0	656	
8784	0	656	
8785	0	649	
8786	0	651	
8787	0	646	
8788	0	651	
8789	0	654	
8790	0	657	
8791	0	665	
8792	0	667	
8793	0	674	
8794	0	668	
8795	0	666	
8796	0	676	
8797	0	674	
8798	0	672	
8799	0	667	
8800	0	661	
8801	0	664	
8802	0	657	
8803	0	656	
8804	0	652	
8805	0	650	
8806	0	647	
8807	0	648	
8808	0	651	
8809	0	655	
8810	0	654	
8811	0	660	
8812	0	660	
8813	0	666	
8814	0	670	
8815	0	672	
8816	0	673	
8817	0	672	
8818	0	670	
8819	0	671	
8820	0	663	
8821	0	663	
8822	0	662	
8823	0	654	
8824	0	651	
8825	0	648	
8826	0	650	
8827	0	647	
8828	0	650	
8829	0	651	
8830	0	656	
8831	0	659	
8832	0	663	
8833	0	665	
8834	0	669	
8835	0	671	
8836	0	673	
8837	0	672	
8838	0	671	
8839	0	666	
8840	0	665	
8841	0	663	
8842	0	659	
8843	0	655	
8844	0	653	
8845	0	648	
8846	0	650	
8847	0	650	
8848	0	652	
8849	0	656	
8850	0	658	
8851	0	662	
8852	0	657	
8853	0	663	
8854	0	670	
8855	0	668	
8856	0	667	
8857	0	671	
8858	0	669	
8859	0	668	
8860	0	663	
8861	0	665	
8862	0	660	
8863	0	657	
8864	0	652	
8865	0	650	
8866	0	646	
8867	0	645	
8868	0	651	
8869	0	655	
8870	0	656	
8871	0	658	
8872	0	664	
8873	0	666	
8874	0	667	
8875	0	671	
8876	0	674	
8877	0	671	
8878	0	667	
8879	0	671	
8880	0	661	
8881	0	659	
8882	0	657	
8883	0	652	
8884	0	651	
8885	0	649	
8886	0	646	
8887	0	649	
8888	0	648	
8889	0	654	
8890	0	656	
8891	0	657	
8892	0	664	
8893	0	667	
8894	0	670	
8895	0	669	
8896	0	670	
8897	0	672	
8898	0	672	
8899	0	667	
8900	0	662	
8901	0	661	
8902	0	656	
8903	0	655	
8904	0	651	
8905	0	649	
8906	0	651	
8907	0	648	
8908	0	649	
8909	0	654	
8910	0	656	
8911	0	660	
8912	0	665	
8913	0	666	
8914	0	673	
8915	0	673	
8916	0	674	
8917	0	675	
8918	0	671	
8919	0	667	
8920	0	666	
8921	0	663	
8922	0	658	
8923	0	653	
8924	0	653	
8925	0	650	
8926	0	651	
8927	0	648	
8928	0	649	
8929	0	655	
8930	0	657	
8931	0	660	
8932	0	662	
8933	0	667	
8934	0	665	
8935	0	668	
8936	0	673	
8937	0	669	
8938	0	667	
8939	0	667	
8940	0	666	
8941	0	660	
8942	0	659	
8943	0	656	
8944	0	655	
8945	0	646	
8946	0	650	
8947	0	647	
8948	0	651	
8949	0	654	
8950	0	656	
8951	0	659	
8952	0	665	
8953	0	666	
8954	0	668	
8955	0	669	
8956	0	671	
8957	0	672	
8958	0	671	
8959	0	670	
8960	0	666	
8961	0	668	
8962	0	657	
8963	0	659	
8964	0	653	
8965	0	653	
8966	0	650	
8967	0	654	
8968	0	654	
8969	0	655	
8970	0	659	
8971	0	660	
8972	0	665	
8973	0	668	
8974	0	670	
8975	0	673	
8976	0	675	
8977	0	673	
8978	0	671	
8979	0	669	
8980	0	667	
8981	0	664	
8982	0	659	
8983	0	653	
8984	0	650	
8985	0	652	
8986	0	651	
8987	0	650	
8988	0	650	
8989	0	654	
8990	0	656	
8991	0	659	
8992	0	660	
8993	0	665	
8994	0	666	
8995	0	670	
8996	0	670	
8997	0	672	
8998	0	669	
8999	0	668	
9000	0	666	
9001	0	662	
9002	0	657	
9003	0	653	
9004	0	650	
9005	0	646	
9006	0	650	
9007	0	647	
9008	0	648	
9009	0	653	
9010	0	655	
9011	0	658	
9012	0	661	
9013	0	665	
9014	0	668	
9015	0	674	
9016	0	667	
9017	0	671	
9018	0	664	
9019	0	667	
9020	0	662	
9021	0	661	
9022	0	657	
9023	0	654	
9024	0	651	
9025	0	650	
9026	0	651	
9027	0	650	
9028	0	650	
9029	0	653	
9030	0	654	
9031	0	659	
9032	0	660	
9033	0	663	
9034	0	667	
9035	0	672	
9036	0	672	
9037	0	669	
9038	0	670	
9039	0	667	
9040	0	662	
9041	0	658	
9042	0	657	
9043	0	654	
9044	0	648	
9045	0	650	
9046	0	648	
9047	0	648	
9048	0	652	
9049	0	652	
9050	0	654	
9051	0	660	
9052	0	660	
9053	0	665	
9054	0	671	
9055	0	671	
9056	0	668	
9057	0	669	
9058	0	668	
9059	0	668	
9060	0	665	
9061	0	664	
9062	0	656	
9063	0	653	
9064	0	648	
9065	0	650	
9066	0	646	
9067	0	648	
9068	0	647	
9069	0	652	
9070	0	655	
9071	0	660	
9072	0	662	
9073	0	668	
9074	0	668	
9075	0	668	
9076	0	672	
9077	0	670	
9078	0	670	
9079	0	667	
9080	0	664	
9081	0	661	
9082	0	656	
9083	0	657	
9084	0	650	
9085	0	651	
9086	0	651	
9087	0	650	
9088	0	650	
9089	0	651	
9090	0	656	
9091	0	659	
9092	0	663	
9093	0	666	
9094	0	668	
9095	0	670	
9096	0	669	
9097	0	672	
9098	0	670	
9099	0	667	
9100	0	662	
9101	0	661	
9102	0	659	
9103	0	648	
9104	0	650	
9105	0	649	
9106	0	645	
9107	0	648	
9108	0	645	
9109	0	654	
9110	0	656	
9111	0	662	
9112	0	655	
9113	0	671	
9114	0	668	
9115	0	672	
9116	0	668	
9117	0	671	
9118	0	672	
9119	0	665	
9120	0	664	
9121	0	659	
9122	0	660	
9123	0	659	
9124	0	653	
9125	0	649	
9126	0	649	
9127	0	649	
9128	0	651	
9129	0	653	
9130	0	654	
9131	0	657	
9132	0	666	
9133	0	665	
9134	0	668	
9135	0	673	
9136	0	669	
9137	0	673	
9138	0	670	
9139	0	669	
9140	0	666	
9141	0	663	
9142	0	658	
9143	0	655	
9144	0	652	
9145	0	652	
9146	0	651	
9147	0	655	
9148	0	651	
9149	0	658	
9150	0	656	
9151	0	662	
9152	0	664	
9153	0	669	
9154	0	670	
9155	0	667	
9156	0	674	
9157	0	672	
9158	0	671	
9159	0	672	
9160	0	666	
9161	0	665	
9162	0	663	
9163	0	657	
9164	0	658	
9165	0	650	
9166	0	648	
9167	0	650	
9168	0	650	
9169	0	652	
9170	0	656	
9171	0	658	
9172	0	663	
9173	0	667	
9174	0	671	
9175	0	671	
9176	0	673	
9177	0	672	
9178	0	672	
9179	0	666	
9180	0	663	
9181	0	662	
9182	0	659	
9183	0	656	
9184	0	654	
9185	0	650	
9186	0	649	
9187	0	646	
9188	0	654	
9189	0	654	
9190	0	656	
9191	0	659	
9192	0	662	
9193	0	661	
9194	0	668	
9195	0	670	
9196	0	672	
9197	0	669	
9198	0	667	
9199	0	668	
9200	0	663	
9201	0	660	
9202	0	662	
9203	0	650	
9204	0	650	
9205	0	650	
9206	0	648	
9207	0	646	
9208	0	651	
9209	0	653	
9210	0	652	
9211	0	655	
9212	0	660	
9213	0	668	
9214	0	668	
9215	0	669	
9216	0	669	
9217	0	670	
9218	0	666	
9219	0	670	
9220	0	664	
9221	0	660	
9222	0	659	
9223	0	654	
9224	0	651	
9225	0	652	
9226	0	646	
9227	0	648	
9228	0	649	
9229	0	653	
9230	0	652	
9231	0	656	
9232	0	663	
9233	0	661	
9234	0	663	
9235	0	670	
9236	0	669	
9237	0	672	
9238	0	665	
9239	0	666	
9240	0	665	
9241	0	662	
9242	0	655	
9243	0	653	
9244	0	652	
9245	0	649	
9246	0	646	
9247	0	649	
9248	0	651	
9249	0	650	
9250	0	656	
9251	0	660	
9252	0	661	
9253	0	665	
9254	0	670	
9255	0	667	
9256	0	669	
9257	0	670	
9258	0	674	
9259	0	668	
9260	0	668	
9261	0	658	
9262	0	659	
9263	0	655	
9264	0	653	
9265	0	650	
9266	0	648	
9267	0	648	
9268	0	651	
9269	0	652	
9270	0	651	
9271	0	660	
9272	0	664	
9273	0	666	
9274	0	670	
9275	0	674	
9276	0	668	
