# OpenSignals Text File Format
# {"00:07:80:F9:DE:B2": {"sensor": ["RESPIRATION"], "device name": "00:07:80:F9:DE:B2", "column": ["nSeq", "DI", "CH1"], "sync interval": 2, "time": "13:44:48.224", "comments": "", "device connection": "BTH00:07:80:F9:DE:B2", "channels": [1], "keywords": "", "mode": 0, "digital IO": [0, 1], "firmware version": 773, "device": "biosignalsplux", "position": 0, "sampling rate": 1000, "label": ["CH1"], "resolution": [16], "date": "2018-9-25", "special": [{}]}}
# EndOfHeader
0	0	56872	
1	0	56864	
2	0	56856	
3	0	56840	
4	0	56816	
5	0	56808	
6	0	56784	
7	0	56784	
8	0	56776	
9	0	56760	
10	0	56736	
11	0	56728	
12	0	56704	
13	0	56696	
14	0	56680	
15	0	56672	
16	0	56648	
17	0	56624	
18	0	56616	
19	0	56592	
20	0	56592	
21	0	56568	
22	0	56552	
23	0	56520	
24	0	56512	
25	0	56488	
26	0	56472	
27	0	56448	
28	0	56456	
29	0	56424	
30	0	56408	
31	0	56400	
32	0	56368	
33	0	56344	
34	0	56320	
35	0	56304	
36	0	56296	
37	0	56280	
38	0	56256	
39	0	56232	
40	0	56224	
41	0	56184	
42	0	56160	
43	0	56160	
44	0	56128	
45	0	56096	
46	0	56088	
47	0	56064	
48	0	56040	
49	0	56032	
50	0	56008	
51	0	55968	
52	0	55944	
53	0	55928	
54	0	55912	
55	0	55904	
56	0	55872	
57	0	55840	
58	0	55840	
59	0	55808	
60	0	55792	
61	0	55760	
62	0	55736	
63	0	55720	
64	0	55696	
65	0	55672	
66	0	55640	
67	0	55624	
68	0	55600	
69	0	55568	
70	0	55528	
71	0	55512	
72	0	55496	
73	0	55472	
74	0	55440	
75	0	55416	
76	0	55392	
77	0	55384	
78	0	55336	
79	0	55320	
80	0	55296	
81	0	55272	
82	0	55248	
83	0	55232	
84	0	55192	
85	0	55168	
86	0	55144	
87	0	55128	
88	0	55104	
89	0	55072	
90	0	55040	
91	0	55024	
92	0	54976	
93	0	54976	
94	0	54944	
95	0	54912	
96	0	54880	
97	0	54872	
98	0	54848	
99	0	54816	
100	0	54792	
101	0	54760	
102	0	54720	
103	0	54688	
104	0	54688	
105	0	54656	
106	0	54640	
107	0	54608	
108	0	54592	
109	0	54544	
110	0	54520	
111	0	54496	
112	0	54464	
113	0	54440	
114	0	54400	
115	0	54376	
116	0	54360	
117	0	54336	
118	0	54312	
119	0	54288	
120	0	54264	
121	0	54248	
122	0	54208	
123	0	54184	
124	0	54184	
125	0	54144	
126	0	54128	
127	0	54112	
128	0	54088	
129	0	54064	
130	0	54048	
131	0	54024	
132	0	54016	
133	0	53976	
134	0	53960	
135	0	53952	
136	0	53936	
137	0	53928	
138	0	53896	
139	0	53880	
140	0	53856	
141	0	53848	
142	0	53824	
143	0	53824	
144	0	53800	
145	0	53792	
146	0	53752	
147	0	53752	
148	0	53744	
149	0	53720	
150	0	53696	
151	0	53672	
152	0	53672	
153	0	53672	
154	0	53656	
155	0	53632	
156	0	53624	
157	0	53608	
158	0	53592	
159	0	53568	
160	0	53568	
161	0	53536	
162	0	53520	
163	0	53512	
164	0	53480	
165	0	53480	
166	0	53472	
167	0	53472	
168	0	53456	
169	0	53448	
170	0	53424	
171	0	53408	
172	0	53392	
173	0	53392	
174	0	53376	
175	0	53360	
176	0	53352	
177	0	53344	
178	0	53312	
179	0	53320	
180	0	53288	
181	0	53264	
182	0	53264	
183	0	53240	
184	0	53224	
185	0	53216	
186	0	53216	
187	0	53208	
188	0	53184	
189	0	53160	
190	0	53160	
191	0	53136	
192	0	53128	
193	0	53120	
194	0	53104	
195	0	53096	
196	0	53088	
197	0	53072	
198	0	53064	
199	0	53040	
200	0	53024	
201	0	53008	
202	0	52992	
203	0	52968	
204	0	52984	
205	0	52960	
206	0	52960	
207	0	52928	
208	0	52920	
209	0	52912	
210	0	52904	
211	0	52896	
212	0	52888	
213	0	52872	
214	0	52856	
215	0	52848	
216	0	52832	
217	0	52840	
218	0	52824	
219	0	52816	
220	0	52784	
221	0	52784	
222	0	52776	
223	0	52768	
224	0	52768	
225	0	52760	
226	0	52744	
227	0	52752	
228	0	52736	
229	0	52720	
230	0	52720	
231	0	52720	
232	0	52712	
233	0	52688	
234	0	52688	
235	0	52680	
236	0	52680	
237	0	52688	
238	0	52672	
239	0	52656	
240	0	52640	
241	0	52648	
242	0	52648	
243	0	52640	
244	0	52640	
245	0	52624	
246	0	52632	
247	0	52608	
248	0	52616	
249	0	52600	
250	0	52608	
251	0	52576	
252	0	52584	
253	0	52584	
254	0	52576	
255	0	52568	
256	0	52552	
257	0	52552	
258	0	52552	
259	0	52528	
260	0	52520	
261	0	52512	
262	0	52496	
263	0	52488	
264	0	52488	
265	0	52480	
266	0	52464	
267	0	52464	
268	0	52448	
269	0	52448	
270	0	52448	
271	0	52424	
272	0	52424	
273	0	52416	
274	0	52392	
275	0	52400	
276	0	52384	
277	0	52368	
278	0	52360	
279	0	52344	
280	0	52336	
281	0	52336	
282	0	52320	
283	0	52304	
284	0	52296	
285	0	52304	
286	0	52288	
287	0	52272	
288	0	52248	
289	0	52264	
290	0	52240	
291	0	52232	
292	0	52232	
293	0	52216	
294	0	52200	
295	0	52200	
296	0	52184	
297	0	52168	
298	0	52160	
299	0	52152	
300	0	52144	
301	0	52120	
302	0	52128	
303	0	52104	
304	0	52104	
305	0	52092	
306	0	52080	
307	0	52056	
308	0	52064	
309	0	52056	
310	0	52048	
311	0	52008	
312	0	52024	
313	0	52000	
314	0	51992	
315	0	51976	
316	0	51960	
317	0	51960	
318	0	51936	
319	0	51936	
320	0	51904	
321	0	51912	
322	0	51896	
323	0	51888	
324	0	51856	
325	0	51840	
326	0	51840	
327	0	51824	
328	0	51808	
329	0	51792	
330	0	51784	
331	0	51784	
332	0	51760	
333	0	51752	
334	0	51744	
335	0	51736	
336	0	51712	
337	0	51688	
338	0	51688	
339	0	51664	
340	0	51648	
341	0	51632	
342	0	51616	
343	0	51616	
344	0	51600	
345	0	51576	
346	0	51568	
347	0	51552	
348	0	51536	
349	0	51512	
350	0	51520	
351	0	51488	
352	0	51472	
353	0	51456	
354	0	51440	
355	0	51408	
356	0	51392	
357	0	51400	
358	0	51360	
359	0	51336	
360	0	51328	
361	0	51312	
362	0	51308	
363	0	51272	
364	0	51264	
365	0	51248	
366	0	51216	
367	0	51216	
368	0	51200	
369	0	51184	
370	0	51168	
371	0	51144	
372	0	51136	
373	0	51120	
374	0	51096	
375	0	51096	
376	0	51072	
377	0	51056	
378	0	51040	
379	0	51024	
380	0	50984	
381	0	50976	
382	0	50960	
383	0	50952	
384	0	50920	
385	0	50912	
386	0	50888	
387	0	50880	
388	0	50856	
389	0	50848	
390	0	50808	
391	0	50808	
392	0	50776	
393	0	50752	
394	0	50744	
395	0	50720	
396	0	50704	
397	0	50688	
398	0	50664	
399	0	50648	
400	0	50624	
401	0	50600	
402	0	50584	
403	0	50560	
404	0	50544	
405	0	50536	
406	0	50504	
407	0	50496	
408	0	50464	
409	0	50448	
410	0	50432	
411	0	50408	
412	0	50400	
413	0	50376	
414	0	50368	
415	0	50344	
416	0	50320	
417	0	50304	
418	0	50288	
419	0	50280	
420	0	50264	
421	0	50240	
422	0	50240	
423	0	50224	
424	0	50200	
425	0	50176	
426	0	50152	
427	0	50144	
428	0	50128	
429	0	50112	
430	0	50096	
431	0	50088	
432	0	50056	
433	0	50032	
434	0	50016	
435	0	50000	
436	0	49984	
437	0	49960	
438	0	49960	
439	0	49920	
440	0	49904	
441	0	49896	
442	0	49864	
443	0	49856	
444	0	49840	
445	0	49824	
446	0	49792	
447	0	49768	
448	0	49752	
449	0	49736	
450	0	49720	
451	0	49704	
452	0	49680	
453	0	49656	
454	0	49648	
455	0	49632	
456	0	49616	
457	0	49580	
458	0	49568	
459	0	49552	
460	0	49536	
461	0	49520	
462	0	49496	
463	0	49472	
464	0	49456	
465	0	49440	
466	0	49424	
467	0	49376	
468	0	49376	
469	0	49344	
470	0	49336	
471	0	49288	
472	0	49296	
473	0	49264	
474	0	49256	
475	0	49216	
476	0	49184	
477	0	49160	
478	0	49152	
479	0	49120	
480	0	49088	
481	0	49056	
482	0	49032	
483	0	49016	
484	0	48992	
485	0	48960	
486	0	48944	
487	0	48920	
488	0	48888	
489	0	48856	
490	0	48832	
491	0	48816	
492	0	48784	
493	0	48760	
494	0	48744	
495	0	48712	
496	0	48704	
497	0	48680	
498	0	48640	
499	0	48616	
500	0	48592	
501	0	48584	
502	0	48552	
503	0	48544	
504	0	48504	
505	0	48480	
506	0	48480	
507	0	48456	
508	0	48448	
509	0	48408	
510	0	48384	
511	0	48368	
512	0	48336	
513	0	48320	
514	0	48312	
515	0	48288	
516	0	48256	
517	0	48232	
518	0	48224	
519	0	48208	
520	0	48184	
521	0	48160	
522	0	48152	
523	0	48136	
524	0	48112	
525	0	48088	
526	0	48080	
527	0	48040	
528	0	48032	
529	0	47992	
530	0	47992	
531	0	47984	
532	0	47960	
533	0	47936	
534	0	47928	
535	0	47912	
536	0	47888	
537	0	47856	
538	0	47840	
539	0	47824	
540	0	47808	
541	0	47784	
542	0	47760	
543	0	47752	
544	0	47736	
545	0	47712	
546	0	47696	
547	0	47680	
548	0	47648	
549	0	47632	
550	0	47624	
551	0	47592	
552	0	47600	
553	0	47568	
554	0	47552	
555	0	47536	
556	0	47520	
557	0	47496	
558	0	47484	
559	0	47464	
560	0	47440	
561	0	47440	
562	0	47408	
563	0	47408	
564	0	47384	
565	0	47352	
566	0	47360	
567	0	47328	
568	0	47312	
569	0	47296	
570	0	47272	
571	0	47256	
572	0	47232	
573	0	47224	
574	0	47192	
575	0	47176	
576	0	47152	
577	0	47136	
578	0	47112	
579	0	47088	
580	0	47072	
581	0	47072	
582	0	47040	
583	0	47008	
584	0	46992	
585	0	46968	
586	0	46952	
587	0	46920	
588	0	46896	
589	0	46872	
590	0	46856	
591	0	46840	
592	0	46792	
593	0	46792	
594	0	46744	
595	0	46728	
596	0	46688	
597	0	46680	
598	0	46656	
599	0	46608	
600	0	46592	
601	0	46560	
602	0	46536	
603	0	46496	
604	0	46456	
605	0	46448	
606	0	46440	
607	0	46400	
608	0	46376	
609	0	46336	
610	0	46328	
611	0	46288	
612	0	46248	
613	0	46224	
614	0	46192	
615	0	46152	
616	0	46128	
617	0	46104	
618	0	46072	
619	0	46040	
620	0	46016	
621	0	45976	
622	0	45952	
623	0	45920	
624	0	45888	
625	0	45856	
626	0	45824	
627	0	45776	
628	0	45744	
629	0	45696	
630	0	45672	
631	0	45640	
632	0	45600	
633	0	45568	
634	0	45520	
635	0	45488	
636	0	45464	
637	0	45432	
638	0	45376	
639	0	45336	
640	0	45304	
641	0	45272	
642	0	45224	
643	0	45184	
644	0	45152	
645	0	45112	
646	0	45072	
647	0	45024	
648	0	44992	
649	0	44928	
650	0	44896	
651	0	44856	
652	0	44824	
653	0	44760	
654	0	44736	
655	0	44696	
656	0	44640	
657	0	44608	
658	0	44560	
659	0	44520	
660	0	44472	
661	0	44424	
662	0	44376	
663	0	44352	
664	0	44296	
665	0	44240	
666	0	44200	
667	0	44168	
668	0	44124	
669	0	44072	
670	0	44032	
671	0	43984	
672	0	43936	
673	0	43880	
674	0	43864	
675	0	43808	
676	0	43768	
677	0	43728	
678	0	43672	
679	0	43616	
680	0	43584	
681	0	43544	
682	0	43496	
683	0	43456	
684	0	43416	
685	0	43352	
686	0	43328	
687	0	43264	
688	0	43224	
689	0	43168	
690	0	43112	
691	0	43072	
692	0	43024	
693	0	42976	
694	0	42928	
695	0	42896	
696	0	42832	
697	0	42784	
698	0	42724	
699	0	42680	
700	0	42632	
701	0	42576	
702	0	42528	
703	0	42472	
704	0	42416	
705	0	42376	
706	0	42312	
707	0	42272	
708	0	42208	
709	0	42152	
710	0	42088	
711	0	42040	
712	0	41976	
713	0	41920	
714	0	41856	
715	0	41816	
716	0	41744	
717	0	41696	
718	0	41632	
719	0	41576	
720	0	41520	
721	0	41456	
722	0	41408	
723	0	41328	
724	0	41264	
725	0	41216	
726	0	41152	
727	0	41080	
728	0	41024	
729	0	40956	
730	0	40896	
731	0	40840	
732	0	40776	
733	0	40704	
734	0	40640	
735	0	40584	
736	0	40520	
737	0	40456	
738	0	40392	
739	0	40320	
740	0	40272	
741	0	40200	
742	0	40136	
743	0	40056	
744	0	40016	
745	0	39936	
746	0	39872	
747	0	39808	
748	0	39744	
749	0	39672	
750	0	39600	
751	0	39544	
752	0	39480	
753	0	39408	
754	0	39344	
755	0	39264	
756	0	39200	
757	0	39136	
758	0	39072	
759	0	39000	
760	0	38928	
761	0	38864	
762	0	38800	
763	0	38728	
764	0	38656	
765	0	38600	
766	0	38520	
767	0	38456	
768	0	38388	
769	0	38320	
770	0	38248	
771	0	38184	
772	0	38112	
773	0	38032	
774	0	37968	
775	0	37896	
776	0	37824	
777	0	37760	
778	0	37680	
779	0	37624	
780	0	37548	
781	0	37488	
782	0	37432	
783	0	37344	
784	0	37280	
785	0	37200	
786	0	37136	
787	0	37064	
788	0	37000	
789	0	36920	
790	0	36856	
791	0	36784	
792	0	36712	
793	0	36640	
794	0	36576	
795	0	36512	
796	0	36432	
797	0	36352	
798	0	36296	
799	0	36224	
800	0	36144	
801	0	36080	
802	0	36008	
803	0	35936	
804	0	35872	
805	0	35792	
806	0	35728	
807	0	35656	
808	0	35584	
809	0	35528	
810	0	35440	
811	0	35376	
812	0	35304	
813	0	35232	
814	0	35152	
815	0	35096	
816	0	35024	
817	0	34952	
818	0	34880	
819	0	34816	
820	0	34736	
821	0	34672	
822	0	34600	
823	0	34520	
824	0	34472	
825	0	34400	
826	0	34328	
827	0	34248	
828	0	34184	
829	0	34112	
830	0	34040	
831	0	33968	
832	0	33904	
833	0	33840	
834	0	33760	
835	0	33696	
836	0	33616	
837	0	33552	
838	0	33488	
839	0	33416	
840	0	33352	
841	0	33280	
842	0	33208	
843	0	33144	
844	0	33072	
845	0	32992	
846	0	32928	
847	0	32864	
848	0	32792	
849	0	32728	
850	0	32656	
851	0	32592	
852	0	32512	
853	0	32456	
854	0	32376	
855	0	32304	
856	0	32240	
857	0	32176	
858	0	32104	
859	0	32032	
860	0	31960	
861	0	31888	
862	0	31824	
863	0	31752	
864	0	31680	
865	0	31616	
866	0	31552	
867	0	31472	
868	0	31400	
869	0	31328	
870	0	31264	
871	0	31184	
872	0	31112	
873	0	31048	
874	0	30976	
875	0	30912	
876	0	30848	
877	0	30768	
878	0	30696	
879	0	30624	
880	0	30560	
881	0	30484	
882	0	30416	
883	0	30336	
884	0	30264	
885	0	30192	
886	0	30128	
887	0	30068	
888	0	29992	
889	0	29912	
890	0	29840	
891	0	29776	
892	0	29696	
893	0	29632	
894	0	29552	
895	0	29488	
896	0	29408	
897	0	29344	
898	0	29272	
899	0	29200	
900	0	29128	
901	0	29064	
902	0	29000	
903	0	28928	
904	0	28848	
905	0	28784	
906	0	28720	
907	0	28640	
908	0	28568	
909	0	28504	
910	0	28440	
911	0	28360	
912	0	28288	
913	0	28224	
914	0	28152	
915	0	28088	
916	0	28020	
917	0	27960	
918	0	27880	
919	0	27808	
920	0	27736	
921	0	27656	
922	0	27592	
923	0	27528	
924	0	27456	
925	0	27392	
926	0	27320	
927	0	27248	
928	0	27176	
929	0	27104	
930	0	27036	
931	0	26960	
932	0	26900	
933	0	26824	
934	0	26752	
935	0	26688	
936	0	26616	
937	0	26544	
938	0	26472	
939	0	26400	
940	0	26336	
941	0	26252	
942	0	26184	
943	0	26124	
944	0	26056	
945	0	25984	
946	0	25920	
947	0	25840	
948	0	25768	
949	0	25696	
950	0	25632	
951	0	25556	
952	0	25496	
953	0	25428	
954	0	25356	
955	0	25284	
956	0	25220	
957	0	25152	
958	0	25080	
959	0	25020	
960	0	24944	
961	0	24872	
962	0	24804	
963	0	24736	
964	0	24672	
965	0	24600	
966	0	24536	
967	0	24472	
968	0	24404	
969	0	24336	
970	0	24260	
971	0	24204	
972	0	24128	
973	0	24064	
974	0	24000	
975	0	23920	
976	0	23864	
977	0	23792	
978	0	23728	
979	0	23664	
980	0	23604	
981	0	23544	
982	0	23468	
983	0	23412	
984	0	23344	
985	0	23280	
986	0	23216	
987	0	23152	
988	0	23088	
989	0	23024	
990	0	22960	
991	0	22896	
992	0	22832	
993	0	22776	
994	0	22712	
995	0	22648	
996	0	22584	
997	0	22528	
998	0	22468	
999	0	22412	
1000	0	22344	
1001	0	22288	
1002	0	22232	
1003	0	22176	
1004	0	22112	
1005	0	22060	
1006	0	22000	
1007	0	21944	
1008	0	21884	
1009	0	21824	
1010	0	21776	
1011	0	21720	
1012	0	21664	
1013	0	21608	
1014	0	21560	
1015	0	21508	
1016	0	21444	
1017	0	21388	
1018	0	21344	
1019	0	21288	
1020	0	21240	
1021	0	21184	
1022	0	21128	
1023	0	21080	
1024	0	21032	
1025	0	20968	
1026	0	20920	
1027	0	20872	
1028	0	20828	
1029	0	20772	
1030	0	20720	
1031	0	20672	
1032	0	20616	
1033	0	20568	
1034	0	20520	
1035	0	20472	
1036	0	20424	
1037	0	20376	
1038	0	20324	
1039	0	20280	
1040	0	20232	
1041	0	20184	
1042	0	20140	
1043	0	20090	
1044	0	20040	
1045	0	19992	
1046	0	19940	
1047	0	19904	
1048	0	19852	
1049	0	19808	
1050	0	19760	
1051	0	19712	
1052	0	19660	
1053	0	19620	
1054	0	19576	
1055	0	19536	
1056	0	19488	
1057	0	19432	
1058	0	19400	
1059	0	19344	
1060	0	19304	
1061	0	19264	
1062	0	19216	
1063	0	19172	
1064	0	19136	
1065	0	19084	
1066	0	19044	
1067	0	19000	
1068	0	18956	
1069	0	18916	
1070	0	18868	
1071	0	18828	
1072	0	18784	
1073	0	18744	
1074	0	18712	
1075	0	18656	
1076	0	18616	
1077	0	18568	
1078	0	18524	
1079	0	18488	
1080	0	18440	
1081	0	18396	
1082	0	18352	
1083	0	18300	
1084	0	18264	
1085	0	18216	
1086	0	18176	
1087	0	18120	
1088	0	18080	
1089	0	18028	
1090	0	17984	
1091	0	17932	
1092	0	17888	
1093	0	17836	
1094	0	17792	
1095	0	17740	
1096	0	17692	
1097	0	17652	
1098	0	17596	
1099	0	17552	
1100	0	17504	
1101	0	17440	
1102	0	17396	
1103	0	17354	
1104	0	17298	
1105	0	17252	
1106	0	17196	
1107	0	17160	
1108	0	17112	
1109	0	17060	
1110	0	17008	
1111	0	16960	
1112	0	16904	
1113	0	16856	
1114	0	16816	
1115	0	16757	
1116	0	16712	
1117	0	16666	
1118	0	16612	
1119	0	16568	
1120	0	16520	
1121	0	16472	
1122	0	16420	
1123	0	16376	
1124	0	16320	
1125	0	16276	
1126	0	16236	
1127	0	16188	
1128	0	16146	
1129	0	16092	
1130	0	16056	
1131	0	16000	
1132	0	15960	
1133	0	15920	
1134	0	15872	
1135	0	15820	
1136	0	15772	
1137	0	15736	
1138	0	15700	
1139	0	15656	
1140	0	15600	
1141	0	15552	
1142	0	15520	
1143	0	15484	
1144	0	15444	
1145	0	15396	
1146	0	15352	
1147	0	15320	
1148	0	15288	
1149	0	15232	
1150	0	15200	
1151	0	15162	
1152	0	15120	
1153	0	15088	
1154	0	15057	
1155	0	15016	
1156	0	14984	
1157	0	14944	
1158	0	14920	
1159	0	14888	
1160	0	14848	
1161	0	14816	
1162	0	14784	
1163	0	14756	
1164	0	14720	
1165	0	14696	
1166	0	14664	
1167	0	14628	
1168	0	14602	
1169	0	14578	
1170	0	14544	
1171	0	14516	
1172	0	14488	
1173	0	14464	
1174	0	14436	
1175	0	14412	
1176	0	14380	
1177	0	14362	
1178	0	14332	
1179	0	14312	
1180	0	14296	
1181	0	14272	
1182	0	14232	
1183	0	14216	
1184	0	14192	
1185	0	14168	
1186	0	14144	
1187	0	14120	
1188	0	14092	
1189	0	14080	
1190	0	14050	
1191	0	14028	
1192	0	14008	
1193	0	13980	
1194	0	13968	
1195	0	13948	
1196	0	13928	
1197	0	13906	
1198	0	13888	
1199	0	13872	
1200	0	13848	
1201	0	13824	
1202	0	13812	
1203	0	13792	
1204	0	13764	
1205	0	13748	
1206	0	13728	
1207	0	13712	
1208	0	13692	
1209	0	13673	
1210	0	13648	
1211	0	13640	
1212	0	13610	
1213	0	13600	
1214	0	13578	
1215	0	13564	
1216	0	13540	
1217	0	13528	
1218	0	13508	
1219	0	13496	
1220	0	13476	
1221	0	13448	
1222	0	13440	
1223	0	13420	
1224	0	13394	
1225	0	13380	
1226	0	13356	
1227	0	13336	
1228	0	13316	
1229	0	13297	
1230	0	13280	
1231	0	13260	
1232	0	13248	
1233	0	13224	
1234	0	13216	
1235	0	13192	
1236	0	13172	
1237	0	13156	
1238	0	13132	
1239	0	13116	
1240	0	13092	
1241	0	13080	
1242	0	13060	
1243	0	13040	
1244	0	13016	
1245	0	12992	
1246	0	12984	
1247	0	12960	
1248	0	12936	
1249	0	12920	
1250	0	12897	
1251	0	12888	
1252	0	12864	
1253	0	12850	
1254	0	12836	
1255	0	12816	
1256	0	12792	
1257	0	12776	
1258	0	12756	
1259	0	12736	
1260	0	12712	
1261	0	12696	
1262	0	12684	
1263	0	12672	
1264	0	12648	
1265	0	12628	
1266	0	12608	
1267	0	12600	
1268	0	12572	
1269	0	12564	
1270	0	12544	
1271	0	12524	
1272	0	12506	
1273	0	12488	
1274	0	12474	
1275	0	12452	
1276	0	12440	
1277	0	12424	
1278	0	12402	
1279	0	12388	
1280	0	12372	
1281	0	12360	
1282	0	12344	
1283	0	12320	
1284	0	12314	
1285	0	12296	
1286	0	12276	
1287	0	12264	
1288	0	12250	
1289	0	12244	
1290	0	12224	
1291	0	12210	
1292	0	12192	
1293	0	12184	
1294	0	12168	
1295	0	12160	
1296	0	12144	
1297	0	12136	
1298	0	12128	
1299	0	12108	
1300	0	12096	
1301	0	12090	
1302	0	12080	
1303	0	12064	
1304	0	12052	
1305	0	12048	
1306	0	12036	
1307	0	12020	
1308	0	12010	
1309	0	11996	
1310	0	11992	
1311	0	11988	
1312	0	11969	
1313	0	11960	
1314	0	11944	
1315	0	11944	
1316	0	11932	
1317	0	11924	
1318	0	11912	
1319	0	11893	
1320	0	11896	
1321	0	11876	
1322	0	11868	
1323	0	11864	
1324	0	11856	
1325	0	11848	
1326	0	11836	
1327	0	11820	
1328	0	11824	
1329	0	11816	
1330	0	11796	
1331	0	11796	
1332	0	11786	
1333	0	11768	
1334	0	11768	
1335	0	11756	
1336	0	11740	
1337	0	11736	
1338	0	11728	
1339	0	11713	
1340	0	11708	
1341	0	11704	
1342	0	11696	
1343	0	11692	
1344	0	11676	
1345	0	11664	
1346	0	11652	
1347	0	11652	
1348	0	11642	
1349	0	11628	
1350	0	11628	
1351	0	11616	
1352	0	11608	
1353	0	11598	
1354	0	11588	
1355	0	11584	
1356	0	11576	
1357	0	11568	
1358	0	11562	
1359	0	11548	
1360	0	11540	
1361	0	11530	
1362	0	11524	
1363	0	11516	
1364	0	11500	
1365	0	11493	
1366	0	11480	
1367	0	11476	
1368	0	11472	
1369	0	11456	
1370	0	11452	
1371	0	11436	
1372	0	11424	
1373	0	11432	
1374	0	11416	
1375	0	11408	
1376	0	11400	
1377	0	11388	
1378	0	11372	
1379	0	11376	
1380	0	11362	
1381	0	11360	
1382	0	11348	
1383	0	11344	
1384	0	11336	
1385	0	11332	
1386	0	11321	
1387	0	11312	
1388	0	11304	
1389	0	11300	
1390	0	11296	
1391	0	11281	
1392	0	11274	
1393	0	11268	
1394	0	11272	
1395	0	11268	
1396	0	11252	
1397	0	11246	
1398	0	11236	
1399	0	11232	
1400	0	11232	
1401	0	11224	
1402	0	11225	
1403	0	11212	
1404	0	11216	
1405	0	11200	
1406	0	11200	
1407	0	11194	
1408	0	11196	
1409	0	11196	
1410	0	11192	
1411	0	11176	
1412	0	11176	
1413	0	11176	
1414	0	11172	
1415	0	11168	
1416	0	11168	
1417	0	11169	
1418	0	11160	
1419	0	11160	
1420	0	11165	
1421	0	11156	
1422	0	11152	
1423	0	11146	
1424	0	11156	
1425	0	11156	
1426	0	11148	
1427	0	11148	
1428	0	11148	
1429	0	11152	
1430	0	11144	
1431	0	11144	
1432	0	11148	
1433	0	11144	
1434	0	11146	
1435	0	11142	
1436	0	11144	
1437	0	11140	
1438	0	11140	
1439	0	11136	
1440	0	11148	
1441	0	11146	
1442	0	11140	
1443	0	11132	
1444	0	11144	
1445	0	11144	
1446	0	11140	
1447	0	11141	
1448	0	11144	
1449	0	11138	
1450	0	11146	
1451	0	11142	
1452	0	11152	
1453	0	11148	
1454	0	11148	
1455	0	11160	
1456	0	11148	
1457	0	11156	
1458	0	11154	
1459	0	11156	
1460	0	11160	
1461	0	11161	
1462	0	11152	
1463	0	11164	
1464	0	11164	
1465	0	11168	
1466	0	11176	
1467	0	11180	
1468	0	11180	
1469	0	11184	
1470	0	11184	
1471	0	11188	
1472	0	11194	
1473	0	11196	
1474	0	11204	
1475	0	11208	
1476	0	11220	
1477	0	11216	
1478	0	11220	
1479	0	11228	
1480	0	11232	
1481	0	11232	
1482	0	11248	
1483	0	11258	
1484	0	11250	
1485	0	11264	
1486	0	11264	
1487	0	11268	
1488	0	11280	
1489	0	11284	
1490	0	11290	
1491	0	11296	
1492	0	11308	
1493	0	11320	
1494	0	11322	
1495	0	11322	
1496	0	11332	
1497	0	11336	
1498	0	11340	
1499	0	11348	
1500	0	11360	
1501	0	11376	
1502	0	11372	
1503	0	11380	
1504	0	11388	
1505	0	11396	
1506	0	11396	
1507	0	11408	
1508	0	11408	
1509	0	11420	
1510	0	11426	
1511	0	11432	
1512	0	11442	
1513	0	11442	
1514	0	11450	
1515	0	11456	
1516	0	11468	
1517	0	11464	
1518	0	11474	
1519	0	11476	
1520	0	11486	
1521	0	11492	
1522	0	11496	
1523	0	11506	
1524	0	11509	
1525	0	11522	
1526	0	11520	
1527	0	11532	
1528	0	11532	
1529	0	11544	
1530	0	11552	
1531	0	11552	
1532	0	11560	
1533	0	11566	
1534	0	11572	
1535	0	11572	
1536	0	11588	
1537	0	11576	
1538	0	11590	
1539	0	11600	
1540	0	11600	
1541	0	11605	
1542	0	11612	
1543	0	11624	
1544	0	11632	
1545	0	11632	
1546	0	11641	
1547	0	11645	
1548	0	11652	
1549	0	11656	
1550	0	11668	
1551	0	11664	
1552	0	11680	
1553	0	11684	
1554	0	11696	
1555	0	11698	
1556	0	11712	
1557	0	11704	
1558	0	11712	
1559	0	11716	
1560	0	11720	
1561	0	11724	
1562	0	11736	
1563	0	11740	
1564	0	11746	
1565	0	11748	
1566	0	11756	
1567	0	11768	
1568	0	11770	
1569	0	11772	
1570	0	11776	
1571	0	11780	
1572	0	11792	
1573	0	11796	
1574	0	11800	
1575	0	11808	
1576	0	11810	
1577	0	11820	
1578	0	11824	
1579	0	11828	
1580	0	11836	
1581	0	11841	
1582	0	11840	
1583	0	11848	
1584	0	11856	
1585	0	11864	
1586	0	11869	
1587	0	11866	
1588	0	11880	
1589	0	11872	
1590	0	11884	
1591	0	11881	
1592	0	11892	
1593	0	11898	
1594	0	11904	
1595	0	11908	
1596	0	11916	
1597	0	11924	
1598	0	11930	
1599	0	11928	
1600	0	11936	
1601	0	11936	
1602	0	11944	
1603	0	11948	
1604	0	11956	
1605	0	11956	
1606	0	11970	
1607	0	11970	
1608	0	11976	
1609	0	11976	
1610	0	11992	
1611	0	12000	
1612	0	12000	
1613	0	12012	
1614	0	12016	
1615	0	12032	
1616	0	12032	
1617	0	12040	
1618	0	12048	
1619	0	12044	
1620	0	12064	
1621	0	12072	
1622	0	12084	
1623	0	12096	
1624	0	12104	
1625	0	12112	
1626	0	12124	
1627	0	12136	
1628	0	12148	
1629	0	12162	
1630	0	12176	
1631	0	12184	
1632	0	12188	
1633	0	12200	
1634	0	12216	
1635	0	12232	
1636	0	12248	
1637	0	12264	
1638	0	12276	
1639	0	12288	
1640	0	12304	
1641	0	12318	
1642	0	12334	
1643	0	12348	
1644	0	12360	
1645	0	12368	
1646	0	12396	
1647	0	12408	
1648	0	12416	
1649	0	12440	
1650	0	12450	
1651	0	12472	
1652	0	12488	
1653	0	12500	
1654	0	12524	
1655	0	12532	
1656	0	12552	
1657	0	12572	
1658	0	12584	
1659	0	12604	
1660	0	12620	
1661	0	12640	
1662	0	12648	
1663	0	12664	
1664	0	12684	
1665	0	12700	
1666	0	12724	
1667	0	12740	
1668	0	12760	
1669	0	12768	
1670	0	12796	
1671	0	12808	
1672	0	12824	
1673	0	12848	
1674	0	12866	
1675	0	12888	
1676	0	12900	
1677	0	12914	
1678	0	12936	
1679	0	12960	
1680	0	12966	
1681	0	12996	
1682	0	13016	
1683	0	13024	
1684	0	13056	
1685	0	13076	
1686	0	13096	
1687	0	13112	
1688	0	13124	
1689	0	13152	
1690	0	13176	
1691	0	13188	
1692	0	13200	
1693	0	13224	
1694	0	13248	
1695	0	13264	
1696	0	13284	
1697	0	13306	
1698	0	13308	
1699	0	13340	
1700	0	13360	
1701	0	13385	
1702	0	13400	
1703	0	13420	
1704	0	13440	
1705	0	13460	
1706	0	13468	
1707	0	13492	
1708	0	13508	
1709	0	13520	
1710	0	13538	
1711	0	13552	
1712	0	13576	
1713	0	13588	
1714	0	13604	
1715	0	13624	
1716	0	13640	
1717	0	13650	
1718	0	13672	
1719	0	13684	
1720	0	13704	
1721	0	13722	
1722	0	13740	
1723	0	13752	
1724	0	13772	
1725	0	13788	
1726	0	13808	
1727	0	13816	
1728	0	13840	
1729	0	13856	
1730	0	13872	
1731	0	13888	
1732	0	13900	
1733	0	13920	
1734	0	13944	
1735	0	13952	
1736	0	13978	
1737	0	13996	
1738	0	14017	
1739	0	14034	
1740	0	14056	
1741	0	14066	
1742	0	14088	
1743	0	14108	
1744	0	14132	
1745	0	14144	
1746	0	14180	
1747	0	14196	
1748	0	14220	
1749	0	14248	
1750	0	14264	
1751	0	14288	
1752	0	14324	
1753	0	14344	
1754	0	14364	
1755	0	14392	
1756	0	14416	
1757	0	14442	
1758	0	14472	
1759	0	14508	
1760	0	14528	
1761	0	14560	
1762	0	14592	
1763	0	14628	
1764	0	14656	
1765	0	14696	
1766	0	14720	
1767	0	14752	
1768	0	14792	
1769	0	14834	
1770	0	14864	
1771	0	14896	
1772	0	14944	
1773	0	14988	
1774	0	15024	
1775	0	15064	
1776	0	15108	
1777	0	15156	
1778	0	15196	
1779	0	15232	
1780	0	15288	
1781	0	15336	
1782	0	15376	
1783	0	15428	
1784	0	15480	
1785	0	15528	
1786	0	15584	
1787	0	15640	
1788	0	15696	
1789	0	15752	
1790	0	15816	
1791	0	15860	
1792	0	15924	
1793	0	15984	
1794	0	16044	
1795	0	16112	
1796	0	16177	
1797	0	16234	
1798	0	16304	
1799	0	16368	
1800	0	16436	
1801	0	16512	
1802	0	16576	
1803	0	16648	
1804	0	16716	
1805	0	16788	
1806	0	16850	
1807	0	16928	
1808	0	17010	
1809	0	17080	
1810	0	17160	
1811	0	17228	
1812	0	17304	
1813	0	17376	
1814	0	17456	
1815	0	17536	
1816	0	17608	
1817	0	17688	
1818	0	17760	
1819	0	17844	
1820	0	17920	
1821	0	18000	
1822	0	18080	
1823	0	18148	
1824	0	18232	
1825	0	18304	
1826	0	18388	
1827	0	18457	
1828	0	18544	
1829	0	18608	
1830	0	18688	
1831	0	18768	
1832	0	18840	
1833	0	18920	
1834	0	18984	
1835	0	19064	
1836	0	19138	
1837	0	19216	
1838	0	19288	
1839	0	19360	
1840	0	19428	
1841	0	19516	
1842	0	19578	
1843	0	19648	
1844	0	19716	
1845	0	19780	
1846	0	19852	
1847	0	19932	
1848	0	19992	
1849	0	20064	
1850	0	20140	
1851	0	20200	
1852	0	20273	
1853	0	20344	
1854	0	20416	
1855	0	20484	
1856	0	20548	
1857	0	20608	
1858	0	20688	
1859	0	20756	
1860	0	20824	
1861	0	20888	
1862	0	20960	
1863	0	21020	
1864	0	21088	
1865	0	21152	
1866	0	21224	
1867	0	21288	
1868	0	21360	
1869	0	21428	
1870	0	21488	
1871	0	21552	
1872	0	21616	
1873	0	21680	
1874	0	21754	
1875	0	21824	
1876	0	21888	
1877	0	21952	
1878	0	22024	
1879	0	22088	
1880	0	22156	
1881	0	22224	
1882	0	22288	
1883	0	22352	
1884	0	22424	
1885	0	22488	
1886	0	22560	
1887	0	22632	
1888	0	22688	
1889	0	22752	
1890	0	22832	
1891	0	22896	
1892	0	22968	
1893	0	23024	
1894	0	23096	
1895	0	23168	
1896	0	23232	
1897	0	23296	
1898	0	23360	
1899	0	23424	
1900	0	23492	
1901	0	23560	
1902	0	23624	
1903	0	23688	
1904	0	23744	
1905	0	23816	
1906	0	23888	
1907	0	23936	
1908	0	24008	
1909	0	24068	
1910	0	24132	
1911	0	24192	
1912	0	24256	
1913	0	24320	
1914	0	24376	
1915	0	24440	
1916	0	24504	
1917	0	24568	
1918	0	24624	
1919	0	24676	
1920	0	24736	
1921	0	24800	
1922	0	24856	
1923	0	24928	
1924	0	24964	
1925	0	25024	
1926	0	25080	
1927	0	25144	
1928	0	25192	
1929	0	25248	
1930	0	25296	
1931	0	25360	
1932	0	25400	
1933	0	25456	
1934	0	25512	
1935	0	25560	
1936	0	25608	
1937	0	25664	
1938	0	25704	
1939	0	25760	
1940	0	25800	
1941	0	25852	
1942	0	25900	
1943	0	25944	
1944	0	25984	
1945	0	26040	
1946	0	26080	
1947	0	26120	
1948	0	26168	
1949	0	26208	
1950	0	26252	
1951	0	26304	
1952	0	26340	
1953	0	26376	
1954	0	26424	
1955	0	26456	
1956	0	26496	
1957	0	26528	
1958	0	26576	
1959	0	26600	
1960	0	26648	
1961	0	26680	
1962	0	26712	
1963	0	26752	
1964	0	26776	
1965	0	26824	
1966	0	26848	
1967	0	26880	
1968	0	26912	
1969	0	26944	
1970	0	26976	
1971	0	27016	
1972	0	27044	
1973	0	27072	
1974	0	27104	
1975	0	27136	
1976	0	27168	
1977	0	27208	
1978	0	27224	
1979	0	27248	
1980	0	27280	
1981	0	27304	
1982	0	27328	
1983	0	27364	
1984	0	27392	
1985	0	27424	
1986	0	27456	
1987	0	27480	
1988	0	27504	
1989	0	27524	
1990	0	27552	
1991	0	27584	
1992	0	27612	
1993	0	27640	
1994	0	27664	
1995	0	27696	
1996	0	27712	
1997	0	27744	
1998	0	27760	
1999	0	27784	
2000	0	27816	
2001	0	27832	
2002	0	27868	
2003	0	27896	
2004	0	27912	
2005	0	27944	
2006	0	27968	
2007	0	27992	
2008	0	28016	
2009	0	28040	
2010	0	28056	
2011	0	28096	
2012	0	28112	
2013	0	28136	
2014	0	28160	
2015	0	28192	
2016	0	28216	
2017	0	28232	
2018	0	28272	
2019	0	28288	
2020	0	28316	
2021	0	28336	
2022	0	28368	
2023	0	28376	
2024	0	28408	
2025	0	28432	
2026	0	28456	
2027	0	28488	
2028	0	28504	
2029	0	28528	
2030	0	28548	
2031	0	28584	
2032	0	28604	
2033	0	28624	
2034	0	28656	
2035	0	28680	
2036	0	28696	
2037	0	28728	
2038	0	28744	
2039	0	28776	
2040	0	28800	
2041	0	28832	
2042	0	28864	
2043	0	28872	
2044	0	28900	
2045	0	28928	
2046	0	28956	
2047	0	28984	
2048	0	29008	
2049	0	29032	
2050	0	29064	
2051	0	29096	
2052	0	29120	
2053	0	29144	
2054	0	29168	
2055	0	29192	
2056	0	29216	
2057	0	29256	
2058	0	29280	
2059	0	29312	
2060	0	29328	
2061	0	29352	
2062	0	29376	
2063	0	29400	
2064	0	29432	
2065	0	29456	
2066	0	29488	
2067	0	29520	
2068	0	29536	
2069	0	29568	
2070	0	29584	
2071	0	29608	
2072	0	29640	
2073	0	29656	
2074	0	29672	
2075	0	29704	
2076	0	29724	
2077	0	29752	
2078	0	29776	
2079	0	29792	
2080	0	29824	
2081	0	29848	
2082	0	29864	
2083	0	29888	
2084	0	29920	
2085	0	29936	
2086	0	29952	
2087	0	29976	
2088	0	29992	
2089	0	30024	
2090	0	30048	
2091	0	30072	
2092	0	30104	
2093	0	30120	
2094	0	30144	
2095	0	30160	
2096	0	30192	
2097	0	30208	
2098	0	30240	
2099	0	30272	
2100	0	30288	
2101	0	30320	
2102	0	30336	
2103	0	30368	
2104	0	30392	
2105	0	30424	
2106	0	30440	
2107	0	30472	
2108	0	30496	
2109	0	30520	
2110	0	30544	
2111	0	30568	
2112	0	30608	
2113	0	30632	
2114	0	30656	
2115	0	30680	
2116	0	30712	
2117	0	30736	
2118	0	30760	
2119	0	30784	
2120	0	30808	
2121	0	30840	
2122	0	30864	
2123	0	30888	
2124	0	30920	
2125	0	30936	
2126	0	30952	
2127	0	30992	
2128	0	31024	
2129	0	31048	
2130	0	31056	
2131	0	31096	
2132	0	31104	
2133	0	31144	
2134	0	31168	
2135	0	31184	
2136	0	31204	
2137	0	31240	
2138	0	31256	
2139	0	31272	
2140	0	31296	
2141	0	31328	
2142	0	31336	
2143	0	31356	
2144	0	31392	
2145	0	31408	
2146	0	31432	
2147	0	31456	
2148	0	31472	
2149	0	31488	
2150	0	31504	
2151	0	31520	
2152	0	31544	
2153	0	31560	
2154	0	31584	
2155	0	31600	
2156	0	31624	
2157	0	31632	
2158	0	31656	
2159	0	31672	
2160	0	31680	
2161	0	31696	
2162	0	31712	
2163	0	31728	
2164	0	31744	
2165	0	31760	
2166	0	31760	
2167	0	31784	
2168	0	31780	
2169	0	31800	
2170	0	31808	
2171	0	31816	
2172	0	31824	
2173	0	31840	
2174	0	31856	
2175	0	31864	
2176	0	31872	
2177	0	31880	
2178	0	31880	
2179	0	31896	
2180	0	31896	
2181	0	31896	
2182	0	31900	
2183	0	31912	
2184	0	31920	
2185	0	31920	
2186	0	31920	
2187	0	31920	
2188	0	31936	
2189	0	31936	
2190	0	31936	
2191	0	31936	
2192	0	31936	
2193	0	31936	
2194	0	31944	
2195	0	31936	
2196	0	31944	
2197	0	31944	
2198	0	31944	
2199	0	31944	
2200	0	31952	
2201	0	31952	
2202	0	31944	
2203	0	31952	
2204	0	31936	
2205	0	31936	
2206	0	31944	
2207	0	31944	
2208	0	31936	
2209	0	31936	
2210	0	31928	
2211	0	31928	
2212	0	31928	
2213	0	31920	
2214	0	31920	
2215	0	31920	
2216	0	31912	
2217	0	31912	
2218	0	31904	
2219	0	31904	
2220	0	31896	
2221	0	31896	
2222	0	31888	
2223	0	31884	
2224	0	31872	
2225	0	31872	
2226	0	31864	
2227	0	31864	
2228	0	31864	
2229	0	31848	
2230	0	31848	
2231	0	31840	
2232	0	31840	
2233	0	31832	
2234	0	31824	
2235	0	31816	
2236	0	31816	
2237	0	31808	
2238	0	31792	
2239	0	31792	
2240	0	31784	
2241	0	31768	
2242	0	31768	
2243	0	31760	
2244	0	31760	
2245	0	31752	
2246	0	31744	
2247	0	31728	
2248	0	31728	
2249	0	31720	
2250	0	31712	
2251	0	31704	
2252	0	31696	
2253	0	31696	
2254	0	31688	
2255	0	31688	
2256	0	31672	
2257	0	31672	
2258	0	31664	
2259	0	31648	
2260	0	31652	
2261	0	31640	
2262	0	31632	
2263	0	31632	
2264	0	31624	
2265	0	31612	
2266	0	31608	
2267	0	31600	
2268	0	31592	
2269	0	31584	
2270	0	31576	
2271	0	31568	
2272	0	31568	
2273	0	31560	
2274	0	31552	
2275	0	31528	
2276	0	31544	
2277	0	31524	
2278	0	31520	
2279	0	31512	
2280	0	31512	
2281	0	31512	
2282	0	31492	
2283	0	31488	
2284	0	31476	
2285	0	31472	
2286	0	31472	
2287	0	31456	
2288	0	31456	
2289	0	31448	
2290	0	31448	
2291	0	31432	
2292	0	31432	
2293	0	31424	
2294	0	31416	
2295	0	31400	
2296	0	31412	
2297	0	31400	
2298	0	31384	
2299	0	31376	
2300	0	31380	
2301	0	31376	
2302	0	31368	
2303	0	31368	
2304	0	31352	
2305	0	31360	
2306	0	31344	
2307	0	31344	
2308	0	31336	
2309	0	31328	
2310	0	31320	
2311	0	31304	
2312	0	31304	
2313	0	31300	
2314	0	31288	
2315	0	31280	
2316	0	31272	
2317	0	31272	
2318	0	31256	
2319	0	31248	
2320	0	31232	
2321	0	31220	
2322	0	31224	
2323	0	31208	
2324	0	31204	
2325	0	31200	
2326	0	31184	
2327	0	31176	
2328	0	31168	
2329	0	31168	
2330	0	31160	
2331	0	31144	
2332	0	31144	
2333	0	31136	
2334	0	31120	
2335	0	31108	
2336	0	31104	
2337	0	31096	
2338	0	31088	
2339	0	31072	
2340	0	31072	
2341	0	31072	
2342	0	31064	
2343	0	31060	
2344	0	31040	
2345	0	31040	
2346	0	31040	
2347	0	31024	
2348	0	31016	
2349	0	31016	
2350	0	31000	
2351	0	30984	
2352	0	30976	
2353	0	30984	
2354	0	30976	
2355	0	30960	
2356	0	30952	
2357	0	30936	
2358	0	30928	
2359	0	30916	
2360	0	30912	
2361	0	30904	
2362	0	30888	
2363	0	30876	
2364	0	30856	
2365	0	30856	
2366	0	30840	
2367	0	30832	
2368	0	30816	
2369	0	30808	
2370	0	30800	
2371	0	30764	
2372	0	30764	
2373	0	30744	
2374	0	30736	
2375	0	30716	
2376	0	30708	
2377	0	30696	
2378	0	30680	
2379	0	30664	
2380	0	30656	
2381	0	30632	
2382	0	30624	
2383	0	30608	
2384	0	30592	
2385	0	30580	
2386	0	30552	
2387	0	30552	
2388	0	30528	
2389	0	30520	
2390	0	30504	
2391	0	30488	
2392	0	30480	
2393	0	30456	
2394	0	30440	
2395	0	30432	
2396	0	30408	
2397	0	30392	
2398	0	30376	
2399	0	30372	
2400	0	30352	
2401	0	30336	
2402	0	30312	
2403	0	30296	
2404	0	30280	
2405	0	30272	
2406	0	30248	
2407	0	30240	
2408	0	30216	
2409	0	30200	
2410	0	30184	
2411	0	30168	
2412	0	30152	
2413	0	30128	
2414	0	30112	
2415	0	30096	
2416	0	30072	
2417	0	30064	
2418	0	30048	
2419	0	30024	
2420	0	30016	
2421	0	30000	
2422	0	29976	
2423	0	29968	
2424	0	29944	
2425	0	29928	
2426	0	29904	
2427	0	29888	
2428	0	29884	
2429	0	29868	
2430	0	29856	
2431	0	29832	
2432	0	29816	
2433	0	29804	
2434	0	29784	
2435	0	29776	
2436	0	29760	
2437	0	29744	
2438	0	29724	
2439	0	29720	
2440	0	29704	
2441	0	29682	
2442	0	29672	
2443	0	29656	
2444	0	29640	
2445	0	29632	
2446	0	29608	
2447	0	29600	
2448	0	29592	
2449	0	29576	
2450	0	29560	
2451	0	29536	
2452	0	29536	
2453	0	29520	
2454	0	29504	
2455	0	29496	
2456	0	29472	
2457	0	29464	
2458	0	29448	
2459	0	29440	
2460	0	29424	
2461	0	29412	
2462	0	29384	
2463	0	29376	
2464	0	29368	
2465	0	29352	
2466	0	29336	
2467	0	29328	
2468	0	29328	
2469	0	29296	
2470	0	29280	
2471	0	29280	
2472	0	29256	
2473	0	29248	
2474	0	29240	
2475	0	29224	
2476	0	29208	
2477	0	29200	
2478	0	29200	
2479	0	29172	
2480	0	29164	
2481	0	29160	
2482	0	29152	
2483	0	29136	
2484	0	29132	
2485	0	29120	
2486	0	29104	
2487	0	29096	
2488	0	29088	
2489	0	29076	
2490	0	29072	
2491	0	29056	
2492	0	29048	
2493	0	29040	
2494	0	29032	
2495	0	29024	
2496	0	29024	
2497	0	29008	
2498	0	28992	
2499	0	28992	
2500	0	28984	
2501	0	28976	
2502	0	28960	
2503	0	28960	
2504	0	28960	
2505	0	28952	
2506	0	28936	
2507	0	28936	
2508	0	28928	
2509	0	28920	
2510	0	28912	
2511	0	28904	
2512	0	28888	
2513	0	28888	
2514	0	28880	
2515	0	28868	
2516	0	28864	
2517	0	28856	
2518	0	28856	
2519	0	28856	
2520	0	28848	
2521	0	28848	
2522	0	28832	
2523	0	28824	
2524	0	28828	
2525	0	28824	
2526	0	28816	
2527	0	28816	
2528	0	28808	
2529	0	28800	
2530	0	28796	
2531	0	28800	
2532	0	28800	
2533	0	28792	
2534	0	28784	
2535	0	28776	
2536	0	28776	
2537	0	28768	
2538	0	28768	
2539	0	28768	
2540	0	28776	
2541	0	28768	
2542	0	28768	
2543	0	28760	
2544	0	28760	
2545	0	28768	
2546	0	28760	
2547	0	28760	
2548	0	28752	
2549	0	28760	
2550	0	28752	
2551	0	28768	
2552	0	28768	
2553	0	28760	
2554	0	28760	
2555	0	28768	
2556	0	28760	
2557	0	28760	
2558	0	28760	
2559	0	28768	
2560	0	28768	
2561	0	28768	
2562	0	28768	
2563	0	28784	
2564	0	28768	
2565	0	28768	
2566	0	28776	
2567	0	28776	
2568	0	28784	
2569	0	28784	
2570	0	28792	
2571	0	28784	
2572	0	28800	
2573	0	28800	
2574	0	28800	
2575	0	28800	
2576	0	28808	
2577	0	28808	
2578	0	28820	
2579	0	28824	
2580	0	28824	
2581	0	28824	
2582	0	28828	
2583	0	28840	
2584	0	28832	
2585	0	28840	
2586	0	28848	
2587	0	28840	
2588	0	28856	
2589	0	28848	
2590	0	28864	
2591	0	28864	
2592	0	28880	
2593	0	28884	
2594	0	28880	
2595	0	28888	
2596	0	28896	
2597	0	28904	
2598	0	28912	
2599	0	28914	
2600	0	28920	
2601	0	28928	
2602	0	28936	
2603	0	28940	
2604	0	28952	
2605	0	28952	
2606	0	28972	
2607	0	28984	
2608	0	28984	
2609	0	28992	
2610	0	29000	
2611	0	29016	
2612	0	29016	
2613	0	29032	
2614	0	29040	
2615	0	29056	
2616	0	29064	
2617	0	29072	
2618	0	29088	
2619	0	29084	
2620	0	29104	
2621	0	29112	
2622	0	29120	
2623	0	29136	
2624	0	29144	
2625	0	29152	
2626	0	29168	
2627	0	29172	
2628	0	29192	
2629	0	29208	
2630	0	29216	
2631	0	29240	
2632	0	29248	
2633	0	29264	
2634	0	29272	
2635	0	29280	
2636	0	29304	
2637	0	29320	
2638	0	29336	
2639	0	29344	
2640	0	29360	
2641	0	29376	
2642	0	29384	
2643	0	29408	
2644	0	29416	
2645	0	29432	
2646	0	29440	
2647	0	29488	
2648	0	29488	
2649	0	29496	
2650	0	29520	
2651	0	29520	
2652	0	29544	
2653	0	29568	
2654	0	29584	
2655	0	29600	
2656	0	29616	
2657	0	29640	
2658	0	29656	
2659	0	29680	
2660	0	29700	
2661	0	29716	
2662	0	29736	
2663	0	29760	
2664	0	29776	
2665	0	29792	
2666	0	29824	
2667	0	29840	
2668	0	29856	
2669	0	29888	
2670	0	29896	
2671	0	29924	
2672	0	29936	
2673	0	29964	
2674	0	29984	
2675	0	30008	
2676	0	30016	
2677	0	30036	
2678	0	30064	
2679	0	30088	
2680	0	30112	
2681	0	30128	
2682	0	30148	
2683	0	30176	
2684	0	30200	
2685	0	30224	
2686	0	30240	
2687	0	30264	
2688	0	30288	
2689	0	30312	
2690	0	30336	
2691	0	30344	
2692	0	30368	
2693	0	30400	
2694	0	30432	
2695	0	30448	
2696	0	30472	
2697	0	30496	
2698	0	30520	
2699	0	30552	
2700	0	30568	
2701	0	30576	
2702	0	30616	
2703	0	30632	
2704	0	30664	
2705	0	30688	
2706	0	30708	
2707	0	30736	
2708	0	30752	
2709	0	30784	
2710	0	30800	
2711	0	30832	
2712	0	30848	
2713	0	30876	
2714	0	30904	
2715	0	30924	
2716	0	30944	
2717	0	30976	
2718	0	30996	
2719	0	31016	
2720	0	31040	
2721	0	31072	
2722	0	31096	
2723	0	31120	
2724	0	31140	
2725	0	31160	
2726	0	31188	
2727	0	31208	
2728	0	31240	
2729	0	31264	
2730	0	31288	
2731	0	31304	
2732	0	31336	
2733	0	31368	
2734	0	31384	
2735	0	31416	
2736	0	31432	
2737	0	31456	
2738	0	31488	
2739	0	31504	
2740	0	31536	
2741	0	31560	
2742	0	31592	
2743	0	31608	
2744	0	31640	
2745	0	31656	
2746	0	31680	
2747	0	31704	
2748	0	31728	
2749	0	31752	
2750	0	31776	
2751	0	31800	
2752	0	31832	
2753	0	31860	
2754	0	31872	
2755	0	31912	
2756	0	31920	
2757	0	31944	
2758	0	31972	
2759	0	31992	
2760	0	32024	
2761	0	32040	
2762	0	32064	
2763	0	32088	
2764	0	32104	
2765	0	32136	
2766	0	32152	
2767	0	32176	
2768	0	32200	
2769	0	32216	
2770	0	32248	
2771	0	32266	
2772	0	32288	
2773	0	32324	
2774	0	32344	
2775	0	32356	
2776	0	32376	
2777	0	32400	
2778	0	32424	
2779	0	32448	
2780	0	32472	
2781	0	32496	
2782	0	32512	
2783	0	32536	
2784	0	32560	
2785	0	32576	
2786	0	32604	
2787	0	32632	
2788	0	32640	
2789	0	32672	
2790	0	32696	
2791	0	32728	
2792	0	32728	
2793	0	32760	
2794	0	32776	
2795	0	32792	
2796	0	32820	
2797	0	32848	
2798	0	32872	
2799	0	32888	
2800	0	32912	
2801	0	32944	
2802	0	32960	
2803	0	32980	
2804	0	33008	
2805	0	33024	
2806	0	33048	
2807	0	33064	
2808	0	33096	
2809	0	33112	
2810	0	33136	
2811	0	33160	
2812	0	33184	
2813	0	33216	
2814	0	33232	
2815	0	33248	
2816	0	33272	
2817	0	33296	
2818	0	33312	
2819	0	33344	
2820	0	33368	
2821	0	33388	
2822	0	33408	
2823	0	33440	
2824	0	33452	
2825	0	33480	
2826	0	33496	
2827	0	33528	
2828	0	33552	
2829	0	33568	
2830	0	33584	
2831	0	33600	
2832	0	33632	
2833	0	33656	
2834	0	33680	
2835	0	33696	
2836	0	33728	
2837	0	33744	
2838	0	33776	
2839	0	33800	
2840	0	33820	
2841	0	33856	
2842	0	33872	
2843	0	33888	
2844	0	33904	
2845	0	33936	
2846	0	33952	
2847	0	33976	
2848	0	33996	
2849	0	34024	
2850	0	34056	
2851	0	34072	
2852	0	34096	
2853	0	34124	
2854	0	34144	
2855	0	34172	
2856	0	34184	
2857	0	34208	
2858	0	34240	
2859	0	34256	
2860	0	34288	
2861	0	34312	
2862	0	34328	
2863	0	34368	
2864	0	34376	
2865	0	34400	
2866	0	34424	
2867	0	34448	
2868	0	34472	
2869	0	34496	
2870	0	34520	
2871	0	34528	
2872	0	34560	
2873	0	34584	
2874	0	34608	
2875	0	34624	
2876	0	34648	
2877	0	34672	
2878	0	34704	
2879	0	34712	
2880	0	34744	
2881	0	34764	
2882	0	34792	
2883	0	34812	
2884	0	34832	
2885	0	34848	
2886	0	34880	
2887	0	34896	
2888	0	34912	
2889	0	34944	
2890	0	34972	
2891	0	35000	
2892	0	35008	
2893	0	35032	
2894	0	35048	
2895	0	35072	
2896	0	35104	
2897	0	35112	
2898	0	35136	
2899	0	35160	
2900	0	35192	
2901	0	35216	
2902	0	35232	
2903	0	35248	
2904	0	35272	
2905	0	35296	
2906	0	35320	
2907	0	35352	
2908	0	35368	
2909	0	35384	
2910	0	35408	
2911	0	35432	
2912	0	35456	
2913	0	35472	
2914	0	35512	
2915	0	35528	
2916	0	35544	
2917	0	35584	
2918	0	35600	
2919	0	35624	
2920	0	35664	
2921	0	35680	
2922	0	35704	
2923	0	35720	
2924	0	35760	
2925	0	35784	
2926	0	35800	
2927	0	35824	
2928	0	35856	
2929	0	35872	
2930	0	35888	
2931	0	35928	
2932	0	35944	
2933	0	35992	
2934	0	36000	
2935	0	36032	
2936	0	36056	
2937	0	36072	
2938	0	36104	
2939	0	36128	
2940	0	36160	
2941	0	36184	
2942	0	36216	
2943	0	36240	
2944	0	36264	
2945	0	36296	
2946	0	36320	
2947	0	36336	
2948	0	36376	
2949	0	36396	
2950	0	36424	
2951	0	36456	
2952	0	36488	
2953	0	36512	
2954	0	36544	
2955	0	36568	
2956	0	36592	
2957	0	36624	
2958	0	36656	
2959	0	36672	
2960	0	36712	
2961	0	36728	
2962	0	36768	
2963	0	36808	
2964	0	36840	
2965	0	36864	
2966	0	36904	
2967	0	36928	
2968	0	36968	
2969	0	36992	
2970	0	37024	
2971	0	37064	
2972	0	37088	
2973	0	37112	
2974	0	37160	
2975	0	37192	
2976	0	37216	
2977	0	37248	
2978	0	37272	
2979	0	37312	
2980	0	37344	
2981	0	37368	
2982	0	37416	
2983	0	37440	
2984	0	37480	
2985	0	37496	
2986	0	37536	
2987	0	37552	
2988	0	37592	
2989	0	37628	
2990	0	37656	
2991	0	37680	
2992	0	37704	
2993	0	37728	
2994	0	37752	
2995	0	37784	
2996	0	37824	
2997	0	37832	
2998	0	37856	
2999	0	37896	
3000	0	37920	
3001	0	37936	
3002	0	37960	
3003	0	38000	
3004	0	38016	
3005	0	38048	
3006	0	38080	
3007	0	38096	
3008	0	38128	
3009	0	38160	
3010	0	38176	
3011	0	38208	
3012	0	38232	
3013	0	38256	
3014	0	38296	
3015	0	38312	
3016	0	38344	
3017	0	38360	
3018	0	38384	
3019	0	38416	
3020	0	38440	
3021	0	38464	
3022	0	38496	
3023	0	38520	
3024	0	38548	
3025	0	38572	
3026	0	38600	
3027	0	38616	
3028	0	38640	
3029	0	38680	
3030	0	38688	
3031	0	38712	
3032	0	38744	
3033	0	38768	
3034	0	38776	
3035	0	38800	
3036	0	38840	
3037	0	38848	
3038	0	38872	
3039	0	38896	
3040	0	38928	
3041	0	38944	
3042	0	38952	
3043	0	38984	
3044	0	38992	
3045	0	39032	
3046	0	39040	
3047	0	39072	
3048	0	39096	
3049	0	39112	
3050	0	39136	
3051	0	39144	
3052	0	39176	
3053	0	39200	
3054	0	39216	
3055	0	39240	
3056	0	39264	
3057	0	39288	
3058	0	39328	
3059	0	39340	
3060	0	39360	
3061	0	39384	
3062	0	39416	
3063	0	39432	
3064	0	39456	
3065	0	39488	
3066	0	39504	
3067	0	39536	
3068	0	39568	
3069	0	39584	
3070	0	39616	
3071	0	39632	
3072	0	39672	
3073	0	39688	
3074	0	39724	
3075	0	39744	
3076	0	39776	
3077	0	39800	
3078	0	39832	
3079	0	39856	
3080	0	39880	
3081	0	39904	
3082	0	39936	
3083	0	39952	
3084	0	39984	
3085	0	40016	
3086	0	40040	
3087	0	40072	
3088	0	40096	
3089	0	40128	
3090	0	40136	
3091	0	40184	
3092	0	40200	
3093	0	40232	
3094	0	40256	
3095	0	40296	
3096	0	40328	
3097	0	40352	
3098	0	40384	
3099	0	40416	
3100	0	40432	
3101	0	40472	
3102	0	40488	
3103	0	40528	
3104	0	40552	
3105	0	40584	
3106	0	40616	
3107	0	40640	
3108	0	40664	
3109	0	40704	
3110	0	40736	
3111	0	40768	
3112	0	40792	
3113	0	40824	
3114	0	40856	
3115	0	40888	
3116	0	40920	
3117	0	40944	
3118	0	40984	
3119	0	41016	
3120	0	41048	
3121	0	41072	
3122	0	41112	
3123	0	41136	
3124	0	41160	
3125	0	41216	
3126	0	41248	
3127	0	41272	
3128	0	41304	
3129	0	41340	
3130	0	41352	
3131	0	41400	
3132	0	41432	
3133	0	41456	
3134	0	41488	
3135	0	41536	
3136	0	41576	
3137	0	41592	
3138	0	41632	
3139	0	41656	
3140	0	41680	
3141	0	41728	
3142	0	41752	
3143	0	41792	
3144	0	41824	
3145	0	41856	
3146	0	41880	
3147	0	41920	
3148	0	41952	
3149	0	41992	
3150	0	42016	
3151	0	42064	
3152	0	42088	
3153	0	42120	
3154	0	42144	
3155	0	42184	
3156	0	42224	
3157	0	42264	
3158	0	42280	
3159	0	42312	
3160	0	42360	
3161	0	42400	
3162	0	42424	
3163	0	42448	
3164	0	42480	
3165	0	42528	
3166	0	42560	
3167	0	42600	
3168	0	42632	
3169	0	42672	
3170	0	42720	
3171	0	42744	
3172	0	42768	
3173	0	42808	
3174	0	42848	
3175	0	42880	
3176	0	42912	
3177	0	42952	
3178	0	42976	
3179	0	43024	
3180	0	43056	
3181	0	43088	
3182	0	43112	
3183	0	43152	
3184	0	43192	
3185	0	43216	
3186	0	43272	
3187	0	43304	
3188	0	43336	
3189	0	43368	
3190	0	43416	
3191	0	43440	
3192	0	43480	
3193	0	43512	
3194	0	43560	
3195	0	43592	
3196	0	43624	
3197	0	43656	
3198	0	43688	
3199	0	43728	
3200	0	43760	
3201	0	43800	
3202	0	43840	
3203	0	43880	
3204	0	43904	
3205	0	43944	
3206	0	43984	
3207	0	44008	
3208	0	44056	
3209	0	44088	
3210	0	44120	
3211	0	44156	
3212	0	44192	
3213	0	44240	
3214	0	44264	
3215	0	44312	
3216	0	44344	
3217	0	44376	
3218	0	44424	
3219	0	44456	
3220	0	44480	
3221	0	44520	
3222	0	44552	
3223	0	44608	
3224	0	44632	
3225	0	44672	
3226	0	44712	
3227	0	44752	
3228	0	44776	
3229	0	44816	
3230	0	44864	
3231	0	44896	
3232	0	44936	
3233	0	44968	
3234	0	45016	
3235	0	45056	
3236	0	45080	
3237	0	45128	
3238	0	45160	
3239	0	45192	
3240	0	45224	
3241	0	45272	
3242	0	45312	
3243	0	45344	
3244	0	45376	
3245	0	45408	
3246	0	45432	
3247	0	45480	
3248	0	45512	
3249	0	45544	
3250	0	45576	
3251	0	45624	
3252	0	45664	
3253	0	45704	
3254	0	45744	
3255	0	45768	
3256	0	45800	
3257	0	45832	
3258	0	45872	
3259	0	45904	
3260	0	45928	
3261	0	45960	
3262	0	45992	
3263	0	46048	
3264	0	46064	
3265	0	46112	
3266	0	46144	
3267	0	46160	
3268	0	46208	
3269	0	46240	
3270	0	46280	
3271	0	46304	
3272	0	46336	
3273	0	46368	
3274	0	46408	
3275	0	46440	
3276	0	46464	
3277	0	46508	
3278	0	46528	
3279	0	46560	
3280	0	46600	
3281	0	46624	
3282	0	46656	
3283	0	46704	
3284	0	46728	
3285	0	46768	
3286	0	46800	
3287	0	46832	
3288	0	46856	
3289	0	46880	
3290	0	46920	
3291	0	46952	
3292	0	46984	
3293	0	47024	
3294	0	47048	
3295	0	47080	
3296	0	47116	
3297	0	47144	
3298	0	47184	
3299	0	47208	
3300	0	47248	
3301	0	47272	
3302	0	47312	
3303	0	47336	
3304	0	47376	
3305	0	47408	
3306	0	47432	
3307	0	47472	
3308	0	47496	
3309	0	47544	
3310	0	47560	
3311	0	47600	
3312	0	47624	
3313	0	47656	
3314	0	47688	
3315	0	47712	
3316	0	47736	
3317	0	47776	
3318	0	47808	
3319	0	47840	
3320	0	47848	
3321	0	47904	
3322	0	47928	
3323	0	47952	
3324	0	47992	
3325	0	48016	
3326	0	48056	
3327	0	48072	
3328	0	48112	
3329	0	48152	
3330	0	48160	
3331	0	48208	
3332	0	48240	
3333	0	48256	
3334	0	48280	
3335	0	48320	
3336	0	48336	
3337	0	48384	
3338	0	48408	
3339	0	48432	
3340	0	48472	
3341	0	48492	
3342	0	48520	
3343	0	48544	
3344	0	48584	
3345	0	48600	
3346	0	48616	
3347	0	48664	
3348	0	48680	
3349	0	48728	
3350	0	48736	
3351	0	48768	
3352	0	48792	
3353	0	48812	
3354	0	48856	
3355	0	48872	
3356	0	48904	
3357	0	48936	
3358	0	48952	
3359	0	48976	
3360	0	49008	
3361	0	49016	
3362	0	49056	
3363	0	49080	
3364	0	49112	
3365	0	49128	
3366	0	49152	
3367	0	49184	
3368	0	49200	
3369	0	49232	
3370	0	49248	
3371	0	49280	
3372	0	49288	
3373	0	49328	
3374	0	49344	
3375	0	49368	
3376	0	49384	
3377	0	49408	
3378	0	49424	
3379	0	49456	
3380	0	49480	
3381	0	49496	
3382	0	49528	
3383	0	49536	
3384	0	49552	
3385	0	49584	
3386	0	49608	
3387	0	49616	
3388	0	49640	
3389	0	49656	
3390	0	49672	
3391	0	49696	
3392	0	49712	
3393	0	49736	
3394	0	49752	
3395	0	49760	
3396	0	49792	
3397	0	49808	
3398	0	49816	
3399	0	49840	
3400	0	49864	
3401	0	49880	
3402	0	49896	
3403	0	49920	
3404	0	49920	
3405	0	49952	
3406	0	49960	
3407	0	49984	
3408	0	49992	
3409	0	50016	
3410	0	50040	
3411	0	50048	
3412	0	50056	
3413	0	50072	
3414	0	50104	
3415	0	50104	
3416	0	50136	
3417	0	50136	
3418	0	50152	
3419	0	50168	
3420	0	50184	
3421	0	50192	
3422	0	50216	
3423	0	50224	
3424	0	50240	
3425	0	50256	
3426	0	50264	
3427	0	50280	
3428	0	50288	
3429	0	50320	
3430	0	50336	
3431	0	50336	
3432	0	50352	
3433	0	50368	
3434	0	50368	
3435	0	50384	
3436	0	50416	
3437	0	50416	
3438	0	50448	
3439	0	50448	
3440	0	50456	
3441	0	50472	
3442	0	50480	
3443	0	50496	
3444	0	50512	
3445	0	50520	
3446	0	50528	
3447	0	50552	
3448	0	50576	
3449	0	50576	
3450	0	50584	
3451	0	50592	
3452	0	50608	
3453	0	50616	
3454	0	50624	
3455	0	50640	
3456	0	50656	
3457	0	50664	
3458	0	50680	
3459	0	50696	
3460	0	50704	
3461	0	50720	
3462	0	50728	
3463	0	50736	
3464	0	50776	
3465	0	50760	
3466	0	50792	
3467	0	50792	
3468	0	50808	
3469	0	50816	
3470	0	50832	
3471	0	50848	
3472	0	50856	
3473	0	50856	
3474	0	50888	
3475	0	50904	
3476	0	50896	
3477	0	50920	
3478	0	50944	
3479	0	50952	
3480	0	50952	
3481	0	50968	
3482	0	50984	
3483	0	50992	
3484	0	51016	
3485	0	51032	
3486	0	51032	
3487	0	51048	
3488	0	51064	
3489	0	51080	
3490	0	51080	
3491	0	51104	
3492	0	51112	
3493	0	51112	
3494	0	51128	
3495	0	51152	
3496	0	51144	
3497	0	51160	
3498	0	51200	
3499	0	51208	
3500	0	51216	
3501	0	51248	
3502	0	51240	
3503	0	51264	
3504	0	51272	
3505	0	51272	
3506	0	51280	
3507	0	51320	
3508	0	51320	
3509	0	51312	
3510	0	51336	
3511	0	51368	
3512	0	51368	
3513	0	51384	
3514	0	51392	
3515	0	51424	
3516	0	51416	
3517	0	51432	
3518	0	51432	
3519	0	51456	
3520	0	51472	
3521	0	51472	
3522	0	51488	
3523	0	51512	
3524	0	51520	
3525	0	51528	
3526	0	51536	
3527	0	51560	
3528	0	51552	
3529	0	51584	
3530	0	51600	
3531	0	51592	
3532	0	51616	
3533	0	51632	
3534	0	51632	
3535	0	51648	
3536	0	51672	
3537	0	51680	
3538	0	51680	
3539	0	51688	
3540	0	51712	
3541	0	51712	
3542	0	51744	
3543	0	51744	
3544	0	51752	
3545	0	51768	
3546	0	51776	
3547	0	51776	
3548	0	51800	
3549	0	51792	
3550	0	51824	
3551	0	51840	
3552	0	51848	
3553	0	51848	
3554	0	51880	
3555	0	51888	
3556	0	51912	
3557	0	51904	
3558	0	51920	
3559	0	51920	
3560	0	51936	
3561	0	51936	
3562	0	51952	
3563	0	51944	
3564	0	51984	
3565	0	51992	
3566	0	52016	
3567	0	52024	
3568	0	52032	
3569	0	52032	
3570	0	52064	
3571	0	52072	
3572	0	52064	
3573	0	52080	
3574	0	52096	
3575	0	52112	
3576	0	52112	
3577	0	52112	
3578	0	52136	
3579	0	52160	
3580	0	52160	
3581	0	52168	
3582	0	52200	
3583	0	52208	
3584	0	52224	
3585	0	52232	
3586	0	52240	
3587	0	52256	
3588	0	52264	
3589	0	52280	
3590	0	52296	
3591	0	52312	
3592	0	52336	
3593	0	52328	
3594	0	52344	
3595	0	52360	
3596	0	52368	
3597	0	52384	
3598	0	52392	
3599	0	52416	
3600	0	52424	
3601	0	52448	
3602	0	52472	
3603	0	52480	
3604	0	52496	
3605	0	52512	
3606	0	52520	
3607	0	52528	
3608	0	52568	
3609	0	52584	
3610	0	52584	
3611	0	52600	
3612	0	52624	
3613	0	52624	
3614	0	52656	
3615	0	52664	
3616	0	52688	
3617	0	52712	
3618	0	52736	
3619	0	52752	
3620	0	52752	
3621	0	52776	
3622	0	52800	
3623	0	52808	
3624	0	52824	
3625	0	52840	
3626	0	52864	
3627	0	52896	
3628	0	52880	
3629	0	52912	
3630	0	52920	
3631	0	52944	
3632	0	52960	
3633	0	52960	
3634	0	52976	
3635	0	52992	
3636	0	53016	
3637	0	53024	
3638	0	53040	
3639	0	53064	
3640	0	53088	
3641	0	53104	
3642	0	53088	
3643	0	53128	
3644	0	53120	
3645	0	53144	
3646	0	53136	
3647	0	53160	
3648	0	53176	
3649	0	53200	
3650	0	53192	
3651	0	53192	
3652	0	53224	
3653	0	53232	
3654	0	53248	
3655	0	53248	
3656	0	53264	
3657	0	53264	
3658	0	53280	
3659	0	53304	
3660	0	53320	
3661	0	53320	
3662	0	53320	
3663	0	53328	
3664	0	53360	
3665	0	53376	
3666	0	53360	
3667	0	53372	
3668	0	53384	
3669	0	53384	
3670	0	53416	
3671	0	53408	
3672	0	53432	
3673	0	53440	
3674	0	53448	
3675	0	53448	
3676	0	53456	
3677	0	53456	
3678	0	53456	
3679	0	53472	
3680	0	53472	
3681	0	53472	
3682	0	53488	
3683	0	53504	
3684	0	53504	
3685	0	53504	
3686	0	53504	
3687	0	53512	
3688	0	53488	
3689	0	53520	
3690	0	53520	
3691	0	53504	
3692	0	53520	
3693	0	53536	
3694	0	53512	
3695	0	53536	
3696	0	53536	
3697	0	53528	
3698	0	53520	
3699	0	53536	
3700	0	53536	
3701	0	53520	
3702	0	53544	
3703	0	53552	
3704	0	53544	
3705	0	53544	
3706	0	53552	
3707	0	53552	
3708	0	53552	
3709	0	53568	
3710	0	53568	
3711	0	53568	
3712	0	53576	
3713	0	53584	
3714	0	53584	
3715	0	53600	
3716	0	53600	
3717	0	53600	
3718	0	53624	
3719	0	53632	
3720	0	53640	
3721	0	53632	
3722	0	53640	
3723	0	53640	
3724	0	53656	
3725	0	53664	
3726	0	53680	
3727	0	53688	
3728	0	53664	
3729	0	53696	
3730	0	53696	
3731	0	53704	
3732	0	53712	
3733	0	53720	
3734	0	53728	
3735	0	53736	
3736	0	53752	
3737	0	53752	
3738	0	53744	
3739	0	53760	
3740	0	53776	
3741	0	53784	
3742	0	53792	
3743	0	53784	
3744	0	53792	
3745	0	53792	
3746	0	53824	
3747	0	53824	
3748	0	53824	
3749	0	53832	
3750	0	53864	
3751	0	53864	
3752	0	53856	
3753	0	53856	
3754	0	53856	
3755	0	53872	
3756	0	53888	
3757	0	53880	
3758	0	53888	
3759	0	53896	
3760	0	53920	
3761	0	53928	
3762	0	53920	
3763	0	53920	
3764	0	53920	
3765	0	53920	
3766	0	53952	
3767	0	53952	
3768	0	53952	
3769	0	53952	
3770	0	53968	
3771	0	53984	
3772	0	53984	
3773	0	53984	
3774	0	54008	
3775	0	53984	
3776	0	54000	
3777	0	54016	
3778	0	54016	
3779	0	54048	
3780	0	54040	
3781	0	54032	
3782	0	54032	
3783	0	54056	
3784	0	54064	
3785	0	54064	
3786	0	54088	
3787	0	54104	
3788	0	54096	
3789	0	54112	
3790	0	54128	
3791	0	54128	
3792	0	54144	
3793	0	54144	
3794	0	54160	
3795	0	54192	
3796	0	54184	
3797	0	54208	
3798	0	54208	
3799	0	54224	
3800	0	54224	
3801	0	54232	
3802	0	54264	
3803	0	54296	
3804	0	54280	
3805	0	54304	
3806	0	54320	
3807	0	54336	
3808	0	54360	
3809	0	54368	
3810	0	54384	
3811	0	54400	
3812	0	54432	
3813	0	54448	
3814	0	54472	
3815	0	54480	
3816	0	54496	
3817	0	54512	
3818	0	54544	
3819	0	54560	
3820	0	54576	
3821	0	54592	
3822	0	54608	
3823	0	54640	
3824	0	54640	
3825	0	54672	
3826	0	54688	
3827	0	54720	
3828	0	54736	
3829	0	54752	
3830	0	54780	
3831	0	54816	
3832	0	54832	
3833	0	54856	
3834	0	54880	
3835	0	54904	
3836	0	54928	
3837	0	54944	
3838	0	54976	
3839	0	55016	
3840	0	55024	
3841	0	55040	
3842	0	55072	
3843	0	55088	
3844	0	55120	
3845	0	55144	
3846	0	55168	
3847	0	55200	
3848	0	55232	
3849	0	55232	
3850	0	55288	
3851	0	55312	
3852	0	55328	
3853	0	55360	
3854	0	55392	
3855	0	55416	
3856	0	55440	
3857	0	55488	
3858	0	55504	
3859	0	55552	
3860	0	55568	
3861	0	55592	
3862	0	55616	
3863	0	55648	
3864	0	55680	
3865	0	55712	
3866	0	55744	
3867	0	55776	
3868	0	55808	
3869	0	55824	
3870	0	55856	
3871	0	55896	
3872	0	55936	
3873	0	55952	
3874	0	55984	
3875	0	56016	
3876	0	56056	
3877	0	56096	
3878	0	56112	
3879	0	56128	
3880	0	56160	
3881	0	56192	
3882	0	56224	
3883	0	56256	
3884	0	56288	
3885	0	56312	
3886	0	56344	
3887	0	56368	
3888	0	56416	
3889	0	56432	
3890	0	56472	
3891	0	56488	
3892	0	56520	
3893	0	56560	
3894	0	56608	
3895	0	56608	
3896	0	56672	
3897	0	56680	
3898	0	56704	
3899	0	56728	
3900	0	56768	
3901	0	56784	
3902	0	56808	
3903	0	56840	
3904	0	56880	
3905	0	56904	
3906	0	56912	
3907	0	56952	
3908	0	56992	
3909	0	57016	
3910	0	57040	
3911	0	57064	
3912	0	57096	
3913	0	57128	
3914	0	57160	
3915	0	57184	
3916	0	57216	
3917	0	57240	
3918	0	57248	
3919	0	57288	
3920	0	57320	
3921	0	57360	
3922	0	57376	
3923	0	57400	
3924	0	57424	
3925	0	57456	
3926	0	57464	
3927	0	57512	
3928	0	57536	
3929	0	57560	
3930	0	57584	
3931	0	57600	
3932	0	57640	
3933	0	57672	
3934	0	57680	
3935	0	57720	
3936	0	57728	
3937	0	57768	
3938	0	57792	
3939	0	57808	
3940	0	57840	
3941	0	57864	
3942	0	57920	
3943	0	57928	
3944	0	57960	
3945	0	57976	
3946	0	58008	
3947	0	58024	
3948	0	58064	
3949	0	58080	
3950	0	58088	
3951	0	58144	
3952	0	58160	
3953	0	58184	
3954	0	58216	
3955	0	58240	
3956	0	58280	
3957	0	58304	
3958	0	58312	
3959	0	58344	
3960	0	58376	
3961	0	58416	
3962	0	58440	
3963	0	58464	
3964	0	58488	
3965	0	58536	
3966	0	58544	
3967	0	58576	
3968	0	58616	
3969	0	58640	
3970	0	58672	
3971	0	58704	
3972	0	58720	
3973	0	58744	
3974	0	58776	
3975	0	58816	
3976	0	58832	
3977	0	58856	
3978	0	58864	
3979	0	58912	
3980	0	58944	
3981	0	58960	
3982	0	58992	
3983	0	59016	
3984	0	59056	
3985	0	59080	
3986	0	59104	
3987	0	59120	
3988	0	59160	
3989	0	59184	
3990	0	59216	
3991	0	59240	
3992	0	59264	
3993	0	59288	
3994	0	59312	
3995	0	59352	
3996	0	59368	
3997	0	59384	
3998	0	59408	
3999	0	59432	
4000	0	59472	
4001	0	59496	
4002	0	59504	
4003	0	59528	
4004	0	59560	
4005	0	59584	
4006	0	59592	
4007	0	59616	
4008	0	59640	
4009	0	59680	
4010	0	59688	
4011	0	59712	
4012	0	59736	
4013	0	59744	
4014	0	59760	
4015	0	59768	
4016	0	59776	
4017	0	59816	
4018	0	59824	
4019	0	59840	
4020	0	59872	
4021	0	59888	
4022	0	59888	
4023	0	59904	
4024	0	59936	
4025	0	59944	
4026	0	59968	
4027	0	59968	
4028	0	59984	
4029	0	59976	
4030	0	60000	
4031	0	60008	
4032	0	60024	
4033	0	60040	
4034	0	60048	
4035	0	60064	
4036	0	60064	
4037	0	60096	
4038	0	60080	
4039	0	60096	
4040	0	60128	
4041	0	60104	
4042	0	60112	
4043	0	60136	
4044	0	60136	
4045	0	60160	
4046	0	60168	
4047	0	60168	
4048	0	60176	
4049	0	60184	
4050	0	60176	
4051	0	60192	
4052	0	60192	
4053	0	60192	
4054	0	60200	
4055	0	60200	
4056	0	60224	
4057	0	60208	
4058	0	60208	
4059	0	60224	
4060	0	60248	
4061	0	60232	
4062	0	60232	
4063	0	60240	
4064	0	60240	
4065	0	60240	
4066	0	60240	
4067	0	60248	
4068	0	60240	
4069	0	60256	
4070	0	60264	
4071	0	60232	
4072	0	60240	
4073	0	60248	
4074	0	60248	
4075	0	60248	
4076	0	60240	
4077	0	60256	
4078	0	60240	
4079	0	60224	
4080	0	60240	
4081	0	60224	
4082	0	60208	
4083	0	60224	
4084	0	60232	
4085	0	60224	
4086	0	60208	
4087	0	60224	
4088	0	60216	
4089	0	60208	
4090	0	60192	
4091	0	60184	
4092	0	60168	
4093	0	60184	
4094	0	60168	
4095	0	60160	
4096	0	60160	
4097	0	60136	
4098	0	60112	
4099	0	60136	
4100	0	60104	
4101	0	60104	
4102	0	60088	
4103	0	60072	
4104	0	60072	
4105	0	60056	
4106	0	60064	
4107	0	60024	
4108	0	60024	
4109	0	60016	
4110	0	60008	
4111	0	59976	
4112	0	59976	
4113	0	59984	
4114	0	59968	
4115	0	59936	
4116	0	59904	
4117	0	59912	
4118	0	59896	
4119	0	59856	
4120	0	59848	
4121	0	59840	
4122	0	59808	
4123	0	59800	
4124	0	59792	
4125	0	59768	
4126	0	59744	
4127	0	59744	
4128	0	59728	
4129	0	59704	
4130	0	59688	
4131	0	59656	
4132	0	59648	
4133	0	59632	
4134	0	59616	
4135	0	59592	
4136	0	59568	
4137	0	59552	
4138	0	59536	
4139	0	59512	
4140	0	59480	
4141	0	59472	
4142	0	59440	
4143	0	59456	
4144	0	59424	
4145	0	59392	
4146	0	59384	
4147	0	59360	
4148	0	59336	
4149	0	59320	
4150	0	59272	
4151	0	59264	
4152	0	59248	
4153	0	59208	
4154	0	59192	
4155	0	59192	
4156	0	59144	
4157	0	59128	
4158	0	59096	
4159	0	59072	
4160	0	59056	
4161	0	59024	
4162	0	59016	
4163	0	58984	
4164	0	58968	
4165	0	58944	
4166	0	58912	
4167	0	58864	
4168	0	58864	
4169	0	58840	
4170	0	58824	
4171	0	58784	
4172	0	58744	
4173	0	58736	
4174	0	58688	
4175	0	58664	
4176	0	58648	
4177	0	58608	
4178	0	58592	
4179	0	58560	
4180	0	58544	
4181	0	58504	
4182	0	58480	
4183	0	58456	
4184	0	58440	
4185	0	58384	
4186	0	58360	
4187	0	58344	
4188	0	58312	
4189	0	58272	
4190	0	58236	
4191	0	58216	
4192	0	58176	
4193	0	58176	
4194	0	58128	
4195	0	58096	
4196	0	58048	
4197	0	58032	
4198	0	57984	
4199	0	57984	
4200	0	57952	
4201	0	57920	
4202	0	57888	
4203	0	57864	
4204	0	57832	
4205	0	57792	
4206	0	57760	
4207	0	57728	
4208	0	57688	
4209	0	57664	
4210	0	57632	
4211	0	57600	
4212	0	57568	
4213	0	57528	
4214	0	57504	
4215	0	57448	
4216	0	57440	
4217	0	57408	
4218	0	57352	
4219	0	57336	
4220	0	57296	
4221	0	57264	
4222	0	57248	
4223	0	57184	
4224	0	57168	
4225	0	57120	
4226	0	57096	
4227	0	57064	
4228	0	57008	
4229	0	57000	
4230	0	56960	
4231	0	56928	
4232	0	56896	
4233	0	56864	
4234	0	56832	
4235	0	56808	
4236	0	56768	
4237	0	56736	
4238	0	56704	
4239	0	56680	
4240	0	56656	
4241	0	56624	
4242	0	56592	
4243	0	56576	
4244	0	56520	
4245	0	56512	
4246	0	56472	
4247	0	56464	
4248	0	56424	
4249	0	56416	
4250	0	56376	
4251	0	56352	
4252	0	56328	
4253	0	56288	
4254	0	56280	
4255	0	56256	
4256	0	56224	
4257	0	56176	
4258	0	56152	
4259	0	56112	
4260	0	56104	
4261	0	56072	
4262	0	56032	
4263	0	56008	
4264	0	55968	
4265	0	55944	
4266	0	55896	
4267	0	55872	
4268	0	55824	
4269	0	55792	
4270	0	55776	
4271	0	55744	
4272	0	55696	
4273	0	55672	
4274	0	55640	
4275	0	55592	
4276	0	55560	
4277	0	55520	
4278	0	55488	
4279	0	55456	
4280	0	55400	
4281	0	55360	
4282	0	55320	
4283	0	55296	
4284	0	55264	
4285	0	55224	
4286	0	55184	
4287	0	55160	
4288	0	55112	
4289	0	55072	
4290	0	55040	
4291	0	55000	
4292	0	54944	
4293	0	54912	
4294	0	54872	
4295	0	54832	
4296	0	54784	
4297	0	54736	
4298	0	54712	
4299	0	54656	
4300	0	54592	
4301	0	54560	
4302	0	54512	
4303	0	54472	
4304	0	54400	
4305	0	54368	
4306	0	54328	
4307	0	54280	
4308	0	54216	
4309	0	54168	
4310	0	54112	
4311	0	54056	
4312	0	54016	
4313	0	53952	
4314	0	53896	
4315	0	53848	
4316	0	53784	
4317	0	53728	
4318	0	53664	
4319	0	53624	
4320	0	53544	
4321	0	53496	
4322	0	53440	
4323	0	53392	
4324	0	53320	
4325	0	53264	
4326	0	53208	
4327	0	53152	
4328	0	53080	
4329	0	53056	
4330	0	52984	
4331	0	52904	
4332	0	52872	
4333	0	52800	
4334	0	52752	
4335	0	52680	
4336	0	52616	
4337	0	52560	
4338	0	52512	
4339	0	52456	
4340	0	52384	
4341	0	52344	
4342	0	52280	
4343	0	52224	
4344	0	52168	
4345	0	52104	
4346	0	52040	
4347	0	51976	
4348	0	51912	
4349	0	51864	
4350	0	51792	
4351	0	51744	
4352	0	51680	
4353	0	51616	
4354	0	51552	
4355	0	51496	
4356	0	51432	
4357	0	51368	
4358	0	51296	
4359	0	51240	
4360	0	51184	
4361	0	51120	
4362	0	51056	
4363	0	50992	
4364	0	50928	
4365	0	50872	
4366	0	50808	
4367	0	50728	
4368	0	50672	
4369	0	50600	
4370	0	50536	
4371	0	50480	
4372	0	50400	
4373	0	50360	
4374	0	50296	
4375	0	50232	
4376	0	50144	
4377	0	50080	
4378	0	50032	
4379	0	49952	
4380	0	49872	
4381	0	49824	
4382	0	49752	
4383	0	49680	
4384	0	49616	
4385	0	49544	
4386	0	49496	
4387	0	49424	
4388	0	49344	
4389	0	49272	
4390	0	49216	
4391	0	49144	
4392	0	49088	
4393	0	49024	
4394	0	48936	
4395	0	48872	
4396	0	48808	
4397	0	48744	
4398	0	48672	
4399	0	48608	
4400	0	48520	
4401	0	48464	
4402	0	48384	
4403	0	48320	
4404	0	48248	
4405	0	48192	
4406	0	48128	
4407	0	48064	
4408	0	47992	
4409	0	47904	
4410	0	47832	
4411	0	47760	
4412	0	47696	
4413	0	47616	
4414	0	47552	
4415	0	47484	
4416	0	47408	
4417	0	47336	
4418	0	47264	
4419	0	47200	
4420	0	47128	
4421	0	47048	
4422	0	46984	
4423	0	46912	
4424	0	46856	
4425	0	46784	
4426	0	46712	
4427	0	46632	
4428	0	46544	
4429	0	46488	
4430	0	46424	
4431	0	46360	
4432	0	46280	
4433	0	46216	
4434	0	46144	
4435	0	46072	
4436	0	45992	
4437	0	45936	
4438	0	45888	
4439	0	45792	
4440	0	45728	
4441	0	45664	
4442	0	45584	
4443	0	45520	
4444	0	45448	
4445	0	45376	
4446	0	45296	
4447	0	45240	
4448	0	45176	
4449	0	45088	
4450	0	45024	
4451	0	44960	
4452	0	44872	
4453	0	44816	
4454	0	44744	
4455	0	44664	
4456	0	44592	
4457	0	44528	
4458	0	44456	
4459	0	44384	
4460	0	44320	
4461	0	44240	
4462	0	44168	
4463	0	44104	
4464	0	44032	
4465	0	43952	
4466	0	43888	
4467	0	43816	
4468	0	43752	
4469	0	43672	
4470	0	43592	
4471	0	43528	
4472	0	43456	
4473	0	43368	
4474	0	43296	
4475	0	43224	
4476	0	43144	
4477	0	43072	
4478	0	43008	
4479	0	42928	
4480	0	42856	
4481	0	42776	
4482	0	42704	
4483	0	42632	
4484	0	42560	
4485	0	42480	
4486	0	42400	
4487	0	42336	
4488	0	42248	
4489	0	42176	
4490	0	42096	
4491	0	42016	
4492	0	41936	
4493	0	41856	
4494	0	41784	
4495	0	41704	
4496	0	41632	
4497	0	41544	
4498	0	41472	
4499	0	41384	
4500	0	41312	
4501	0	41240	
4502	0	41152	
4503	0	41072	
4504	0	40992	
4505	0	40928	
4506	0	40840	
4507	0	40768	
4508	0	40688	
4509	0	40608	
4510	0	40528	
4511	0	40440	
4512	0	40376	
4513	0	40288	
4514	0	40216	
4515	0	40136	
4516	0	40048	
4517	0	39968	
4518	0	39888	
4519	0	39816	
4520	0	39744	
4521	0	39656	
4522	0	39592	
4523	0	39496	
4524	0	39424	
4525	0	39360	
4526	0	39248	
4527	0	39192	
4528	0	39112	
4529	0	39032	
4530	0	38952	
4531	0	38864	
4532	0	38792	
4533	0	38712	
4534	0	38624	
4535	0	38544	
4536	0	38464	
4537	0	38392	
4538	0	38288	
4539	0	38240	
4540	0	38136	
4541	0	38048	
4542	0	37976	
4543	0	37880	
4544	0	37792	
4545	0	37720	
4546	0	37640	
4547	0	37552	
4548	0	37456	
4549	0	37384	
4550	0	37288	
4551	0	37212	
4552	0	37128	
4553	0	37032	
4554	0	36944	
4555	0	36864	
4556	0	36776	
4557	0	36696	
4558	0	36608	
4559	0	36512	
4560	0	36432	
4561	0	36344	
4562	0	36264	
4563	0	36160	
4564	0	36080	
4565	0	35976	
4566	0	35904	
4567	0	35816	
4568	0	35720	
4569	0	35648	
4570	0	35560	
4571	0	35464	
4572	0	35376	
4573	0	35280	
4574	0	35200	
4575	0	35108	
4576	0	35024	
4577	0	34936	
4578	0	34840	
4579	0	34752	
4580	0	34664	
4581	0	34576	
4582	0	34488	
4583	0	34400	
4584	0	34320	
4585	0	34224	
4586	0	34136	
4587	0	34032	
4588	0	33960	
4589	0	33880	
4590	0	33760	
4591	0	33688	
4592	0	33600	
4593	0	33500	
4594	0	33416	
4595	0	33320	
4596	0	33240	
4597	0	33152	
4598	0	33056	
4599	0	32960	
4600	0	32864	
4601	0	32780	
4602	0	32688	
4603	0	32600	
4604	0	32512	
4605	0	32424	
4606	0	32344	
4607	0	32232	
4608	0	32152	
4609	0	32064	
4610	0	31968	
4611	0	31888	
4612	0	31800	
4613	0	31712	
4614	0	31616	
4615	0	31528	
4616	0	31440	
4617	0	31344	
4618	0	31264	
4619	0	31168	
4620	0	31080	
4621	0	30984	
4622	0	30896	
4623	0	30808	
4624	0	30724	
4625	0	30632	
4626	0	30544	
4627	0	30456	
4628	0	30376	
4629	0	30288	
4630	0	30192	
4631	0	30104	
4632	0	30024	
4633	0	29920	
4634	0	29840	
4635	0	29760	
4636	0	29664	
4637	0	29584	
4638	0	29496	
4639	0	29408	
4640	0	29320	
4641	0	29240	
4642	0	29144	
4643	0	29056	
4644	0	28976	
4645	0	28880	
4646	0	28816	
4647	0	28728	
4648	0	28632	
4649	0	28548	
4650	0	28464	
4651	0	28384	
4652	0	28304	
4653	0	28224	
4654	0	28136	
4655	0	28040	
4656	0	27968	
4657	0	27888	
4658	0	27808	
4659	0	27720	
4660	0	27632	
4661	0	27552	
4662	0	27464	
4663	0	27392	
4664	0	27312	
4665	0	27224	
4666	0	27152	
4667	0	27064	
4668	0	26976	
4669	0	26896	
4670	0	26816	
4671	0	26736	
4672	0	26656	
4673	0	26576	
4674	0	26496	
4675	0	26412	
4676	0	26336	
4677	0	26248	
4678	0	26176	
4679	0	26092	
4680	0	26008	
4681	0	25936	
4682	0	25856	
4683	0	25776	
4684	0	25696	
4685	0	25608	
4686	0	25520	
4687	0	25456	
4688	0	25376	
4689	0	25296	
4690	0	25216	
4691	0	25144	
4692	0	25060	
4693	0	24984	
4694	0	24920	
4695	0	24840	
4696	0	24760	
4697	0	24680	
4698	0	24608	
4699	0	24528	
4700	0	24456	
4701	0	24376	
4702	0	24312	
4703	0	24232	
4704	0	24156	
4705	0	24088	
4706	0	24008	
4707	0	23936	
4708	0	23856	
4709	0	23800	
4710	0	23720	
4711	0	23648	
4712	0	23576	
4713	0	23496	
4714	0	23440	
4715	0	23352	
4716	0	23288	
4717	0	23216	
4718	0	23144	
4719	0	23076	
4720	0	23012	
4721	0	22936	
4722	0	22868	
4723	0	22792	
4724	0	22728	
4725	0	22656	
4726	0	22588	
4727	0	22520	
4728	0	22448	
4729	0	22376	
4730	0	22312	
4731	0	22244	
4732	0	22176	
4733	0	22112	
4734	0	22044	
4735	0	21968	
4736	0	21904	
4737	0	21840	
4738	0	21784	
4739	0	21708	
4740	0	21640	
4741	0	21576	
4742	0	21504	
4743	0	21440	
4744	0	21376	
4745	0	21312	
4746	0	21242	
4747	0	21184	
4748	0	21104	
4749	0	21056	
4750	0	20984	
4751	0	20928	
4752	0	20860	
4753	0	20800	
4754	0	20732	
4755	0	20674	
4756	0	20604	
4757	0	20544	
4758	0	20488	
4759	0	20428	
4760	0	20368	
4761	0	20304	
4762	0	20240	
4763	0	20176	
4764	0	20120	
4765	0	20060	
4766	0	20004	
4767	0	19944	
4768	0	19884	
4769	0	19824	
4770	0	19764	
4771	0	19712	
4772	0	19648	
4773	0	19600	
4774	0	19536	
4775	0	19472	
4776	0	19416	
4777	0	19364	
4778	0	19300	
4779	0	19256	
4780	0	19192	
4781	0	19136	
4782	0	19088	
4783	0	19024	
4784	0	18972	
4785	0	18912	
4786	0	18860	
4787	0	18800	
4788	0	18736	
4789	0	18692	
4790	0	18648	
4791	0	18584	
4792	0	18520	
4793	0	18468	
4794	0	18416	
4795	0	18362	
4796	0	18308	
4797	0	18256	
4798	0	18208	
4799	0	18152	
4800	0	18088	
4801	0	18036	
4802	0	17988	
4803	0	17932	
4804	0	17872	
4805	0	17824	
4806	0	17776	
4807	0	17720	
4808	0	17668	
4809	0	17620	
4810	0	17564	
4811	0	17508	
4812	0	17460	
4813	0	17408	
4814	0	17356	
4815	0	17312	
4816	0	17256	
4817	0	17200	
4818	0	17156	
4819	0	17098	
4820	0	17048	
4821	0	17004	
4822	0	16952	
4823	0	16900	
4824	0	16852	
4825	0	16792	
4826	0	16737	
4827	0	16696	
4828	0	16648	
4829	0	16600	
4830	0	16548	
4831	0	16496	
4832	0	16448	
4833	0	16400	
4834	0	16348	
4835	0	16304	
4836	0	16252	
4837	0	16200	
4838	0	16153	
4839	0	16108	
4840	0	16064	
4841	0	16016	
4842	0	15968	
4843	0	15912	
4844	0	15872	
4845	0	15816	
4846	0	15776	
4847	0	15724	
4848	0	15688	
4849	0	15640	
4850	0	15584	
4851	0	15544	
4852	0	15496	
4853	0	15442	
4854	0	15400	
4855	0	15352	
4856	0	15304	
4857	0	15264	
4858	0	15224	
4859	0	15176	
4860	0	15132	
4861	0	15088	
4862	0	15040	
4863	0	15008	
4864	0	14961	
4865	0	14912	
4866	0	14870	
4867	0	14828	
4868	0	14786	
4869	0	14744	
4870	0	14704	
4871	0	14656	
4872	0	14612	
4873	0	14572	
4874	0	14536	
4875	0	14492	
4876	0	14448	
4877	0	14412	
4878	0	14368	
4879	0	14320	
4880	0	14284	
4881	0	14236	
4882	0	14200	
4883	0	14160	
4884	0	14116	
4885	0	14080	
4886	0	14044	
4887	0	14002	
4888	0	13968	
4889	0	13928	
4890	0	13888	
4891	0	13856	
4892	0	13809	
4893	0	13772	
4894	0	13732	
4895	0	13696	
4896	0	13668	
4897	0	13628	
4898	0	13584	
4899	0	13552	
4900	0	13520	
4901	0	13488	
4902	0	13448	
4903	0	13420	
4904	0	13384	
4905	0	13352	
4906	0	13320	
4907	0	13288	
4908	0	13248	
4909	0	13216	
4910	0	13198	
4911	0	13154	
4912	0	13120	
4913	0	13096	
4914	0	13068	
4915	0	13036	
4916	0	13004	
4917	0	12976	
4918	0	12940	
4919	0	12913	
4920	0	12884	
4921	0	12856	
4922	0	12826	
4923	0	12792	
4924	0	12764	
4925	0	12736	
4926	0	12708	
4927	0	12672	
4928	0	12644	
4929	0	12616	
4930	0	12584	
4931	0	12548	
4932	0	12520	
4933	0	12488	
4934	0	12460	
4935	0	12432	
4936	0	12400	
4937	0	12360	
4938	0	12332	
4939	0	12308	
4940	0	12264	
4941	0	12236	
4942	0	12208	
4943	0	12172	
4944	0	12133	
4945	0	12106	
4946	0	12073	
4947	0	12049	
4948	0	12004	
4949	0	11980	
4950	0	11956	
4951	0	11920	
4952	0	11875	
4953	0	11860	
4954	0	11824	
4955	0	11796	
4956	0	11764	
4957	0	11736	
4958	0	11700	
4959	0	11672	
4960	0	11644	
4961	0	11610	
4962	0	11584	
4963	0	11557	
4964	0	11530	
4965	0	11497	
4966	0	11468	
4967	0	11440	
4968	0	11412	
4969	0	11378	
4970	0	11360	
4971	0	11336	
4972	0	11296	
4973	0	11276	
4974	0	11248	
4975	0	11216	
4976	0	11193	
4977	0	11168	
4978	0	11137	
4979	0	11116	
4980	0	11086	
4981	0	11072	
4982	0	11034	
4983	0	11020	
4984	0	10984	
4985	0	10965	
4986	0	10944	
4987	0	10920	
4988	0	10896	
4989	0	10868	
4990	0	10848	
4991	0	10820	
4992	0	10796	
4993	0	10780	
4994	0	10752	
4995	0	10732	
4996	0	10708	
4997	0	10690	
4998	0	10664	
4999	0	10644	
5000	0	10628	
5001	0	10604	
5002	0	10592	
5003	0	10560	
5004	0	10548	
5005	0	10524	
5006	0	10512	
5007	0	10492	
5008	0	10478	
5009	0	10452	
5010	0	10440	
5011	0	10416	
5012	0	10404	
5013	0	10384	
5014	0	10380	
5015	0	10350	
5016	0	10340	
5017	0	10328	
5018	0	10304	
5019	0	10296	
5020	0	10280	
5021	0	10268	
5022	0	10248	
5023	0	10240	
5024	0	10222	
5025	0	10206	
5026	0	10204	
5027	0	10178	
5028	0	10164	
5029	0	10144	
5030	0	10140	
5031	0	10129	
5032	0	10108	
5033	0	10093	
5034	0	10084	
5035	0	10076	
5036	0	10058	
5037	0	10050	
5038	0	10036	
5039	0	10024	
5040	0	10008	
5041	0	9996	
5042	0	9984	
5043	0	9976	
5044	0	9965	
5045	0	9948	
5046	0	9942	
5047	0	9920	
5048	0	9916	
5049	0	9900	
5050	0	9892	
5051	0	9880	
5052	0	9857	
5053	0	9852	
5054	0	9836	
5055	0	9833	
5056	0	9813	
5057	0	9802	
5058	0	9792	
5059	0	9786	
5060	0	9768	
5061	0	9762	
5062	0	9748	
5063	0	9736	
5064	0	9729	
5065	0	9717	
5066	0	9700	
5067	0	9692	
5068	0	9688	
5069	0	9672	
5070	0	9660	
5071	0	9648	
5072	0	9632	
5073	0	9620	
5074	0	9612	
5075	0	9604	
5076	0	9593	
5077	0	9584	
5078	0	9562	
5079	0	9560	
5080	0	9550	
5081	0	9536	
5082	0	9528	
5083	0	9516	
5084	0	9497	
5085	0	9496	
5086	0	9476	
5087	0	9464	
5088	0	9452	
5089	0	9441	
5090	0	9426	
5091	0	9426	
5092	0	9402	
5093	0	9392	
5094	0	9388	
5095	0	9376	
5096	0	9361	
5097	0	9354	
5098	0	9348	
5099	0	9336	
5100	0	9320	
5101	0	9316	
5102	0	9296	
5103	0	9290	
5104	0	9280	
5105	0	9265	
5106	0	9260	
5107	0	9260	
5108	0	9245	
5109	0	9237	
5110	0	9232	
5111	0	9228	
5112	0	9216	
5113	0	9216	
5114	0	9204	
5115	0	9198	
5116	0	9196	
5117	0	9184	
5118	0	9184	
5119	0	9185	
5120	0	9176	
5121	0	9170	
5122	0	9161	
5123	0	9164	
5124	0	9168	
5125	0	9154	
5126	0	9152	
5127	0	9160	
5128	0	9146	
5129	0	9144	
5130	0	9148	
5131	0	9145	
5132	0	9149	
5133	0	9150	
5134	0	9152	
5135	0	9146	
5136	0	9144	
5137	0	9152	
5138	0	9137	
5139	0	9150	
5140	0	9145	
5141	0	9154	
5142	0	9164	
5143	0	9164	
5144	0	9164	
5145	0	9164	
5146	0	9176	
5147	0	9184	
5148	0	9184	
5149	0	9188	
5150	0	9197	
5151	0	9204	
5152	0	9208	
5153	0	9208	
5154	0	9221	
5155	0	9220	
5156	0	9224	
5157	0	9233	
5158	0	9244	
5159	0	9252	
5160	0	9256	
5161	0	9264	
5162	0	9272	
5163	0	9280	
5164	0	9288	
5165	0	9294	
5166	0	9296	
5167	0	9308	
5168	0	9324	
5169	0	9332	
5170	0	9340	
5171	0	9352	
5172	0	9368	
5173	0	9380	
5174	0	9388	
5175	0	9394	
5176	0	9416	
5177	0	9424	
5178	0	9448	
5179	0	9461	
5180	0	9488	
5181	0	9496	
5182	0	9514	
5183	0	9529	
5184	0	9564	
5185	0	9570	
5186	0	9608	
5187	0	9624	
5188	0	9652	
5189	0	9680	
5190	0	9704	
5191	0	9741	
5192	0	9770	
5193	0	9802	
5194	0	9837	
5195	0	9876	
5196	0	9912	
5197	0	9944	
5198	0	9984	
5199	0	10028	
5200	0	10076	
5201	0	10104	
5202	0	10160	
5203	0	10202	
5204	0	10256	
5205	0	10300	
5206	0	10348	
5207	0	10396	
5208	0	10452	
5209	0	10509	
5210	0	10560	
5211	0	10616	
5212	0	10680	
5213	0	10728	
5214	0	10788	
5215	0	10848	
5216	0	10904	
5217	0	10976	
5218	0	11036	
5219	0	11096	
5220	0	11154	
5221	0	11216	
5222	0	11288	
5223	0	11348	
5224	0	11412	
5225	0	11476	
5226	0	11544	
5227	0	11602	
5228	0	11674	
5229	0	11740	
5230	0	11808	
5231	0	11868	
5232	0	11936	
5233	0	12004	
5234	0	12072	
5235	0	12132	
5236	0	12200	
5237	0	12262	
5238	0	12328	
5239	0	12386	
5240	0	12456	
5241	0	12528	
5242	0	12584	
5243	0	12652	
5244	0	12712	
5245	0	12778	
5246	0	12828	
5247	0	12900	
5248	0	12960	
5249	0	13018	
5250	0	13073	
5251	0	13140	
5252	0	13194	
5253	0	13249	
5254	0	13314	
5255	0	13362	
5256	0	13420	
5257	0	13472	
5258	0	13524	
5259	0	13569	
5260	0	13624	
5261	0	13676	
5262	0	13716	
5263	0	13760	
5264	0	13808	
5265	0	13848	
5266	0	13888	
5267	0	13929	
5268	0	13965	
5269	0	14002	
5270	0	14040	
5271	0	14066	
5272	0	14108	
5273	0	14120	
5274	0	14156	
5275	0	14178	
5276	0	14200	
5277	0	14216	
5278	0	14241	
5279	0	14256	
5280	0	14274	
5281	0	14288	
5282	0	14304	
5283	0	14304	
5284	0	14320	
5285	0	14320	
5286	0	14324	
5287	0	14324	
5288	0	14332	
5289	0	14330	
5290	0	14334	
5291	0	14336	
5292	0	14328	
5293	0	14324	
5294	0	14312	
5295	0	14316	
5296	0	14304	
5297	0	14304	
5298	0	14300	
5299	0	14280	
5300	0	14272	
5301	0	14264	
5302	0	14256	
5303	0	14244	
5304	0	14240	
5305	0	14216	
5306	0	14208	
5307	0	14202	
5308	0	14184	
5309	0	14180	
5310	0	14160	
5311	0	14160	
5312	0	14152	
5313	0	14137	
5314	0	14130	
5315	0	14116	
5316	0	14112	
5317	0	14104	
5318	0	14098	
5319	0	14084	
5320	0	14080	
5321	0	14072	
5322	0	14072	
5323	0	14064	
5324	0	14052	
5325	0	14060	
5326	0	14048	
5327	0	14044	
5328	0	14041	
5329	0	14044	
5330	0	14041	
5331	0	14040	
5332	0	14040	
5333	0	14048	
5334	0	14044	
5335	0	14056	
5336	0	14049	
5337	0	14057	
5338	0	14072	
5339	0	14072	
5340	0	14082	
5341	0	14092	
5342	0	14104	
5343	0	14105	
5344	0	14113	
5345	0	14136	
5346	0	14144	
5347	0	14168	
5348	0	14176	
5349	0	14192	
5350	0	14208	
5351	0	14216	
5352	0	14240	
5353	0	14260	
5354	0	14280	
5355	0	14304	
5356	0	14320	
5357	0	14344	
5358	0	14368	
5359	0	14384	
5360	0	14412	
5361	0	14440	
5362	0	14456	
5363	0	14480	
5364	0	14512	
5365	0	14528	
5366	0	14552	
5367	0	14572	
5368	0	14596	
5369	0	14624	
5370	0	14644	
5371	0	14668	
5372	0	14692	
5373	0	14712	
5374	0	14736	
5375	0	14764	
5376	0	14792	
5377	0	14809	
5378	0	14832	
5379	0	14858	
5380	0	14876	
5381	0	14906	
5382	0	14924	
5383	0	14944	
5384	0	14970	
5385	0	14984	
5386	0	15008	
5387	0	15028	
5388	0	15058	
5389	0	15068	
5390	0	15092	
5391	0	15112	
5392	0	15140	
5393	0	15152	
5394	0	15184	
5395	0	15200	
5396	0	15220	
5397	0	15232	
5398	0	15260	
5399	0	15280	
5400	0	15300	
5401	0	15320	
5402	0	15344	
5403	0	15364	
5404	0	15392	
5405	0	15416	
5406	0	15424	
5407	0	15464	
5408	0	15480	
5409	0	15508	
5410	0	15540	
5411	0	15560	
5412	0	15592	
5413	0	15620	
5414	0	15652	
5415	0	15680	
5416	0	15712	
5417	0	15740	
5418	0	15772	
5419	0	15800	
5420	0	15840	
5421	0	15872	
5422	0	15904	
5423	0	15936	
5424	0	15976	
5425	0	16000	
5426	0	16040	
5427	0	16072	
5428	0	16108	
5429	0	16144	
5430	0	16180	
5431	0	16220	
5432	0	16260	
5433	0	16292	
5434	0	16336	
5435	0	16372	
5436	0	16400	
5437	0	16448	
5438	0	16484	
5439	0	16528	
5440	0	16576	
5441	0	16608	
5442	0	16652	
5443	0	16700	
5444	0	16744	
5445	0	16792	
5446	0	16836	
5447	0	16880	
5448	0	16936	
5449	0	16976	
5450	0	17036	
5451	0	17084	
5452	0	17128	
5453	0	17184	
5454	0	17240	
5455	0	17296	
5456	0	17344	
5457	0	17404	
5458	0	17464	
5459	0	17524	
5460	0	17584	
5461	0	17644	
5462	0	17708	
5463	0	17762	
5464	0	17832	
5465	0	17896	
5466	0	17960	
5467	0	18032	
5468	0	18096	
5469	0	18168	
5470	0	18240	
5471	0	18312	
5472	0	18376	
5473	0	18464	
5474	0	18536	
5475	0	18608	
5476	0	18688	
5477	0	18764	
5478	0	18844	
5479	0	18928	
5480	0	19008	
5481	0	19098	
5482	0	19176	
5483	0	19264	
5484	0	19352	
5485	0	19432	
5486	0	19520	
5487	0	19612	
5488	0	19712	
5489	0	19800	
5490	0	19904	
5491	0	19984	
5492	0	20072	
5493	0	20172	
5494	0	20272	
5495	0	20368	
5496	0	20464	
5497	0	20564	
5498	0	20656	
5499	0	20764	
5500	0	20864	
5501	0	20960	
5502	0	21064	
5503	0	21172	
5504	0	21256	
5505	0	21364	
5506	0	21472	
5507	0	21580	
5508	0	21680	
5509	0	21792	
5510	0	21896	
5511	0	22008	
5512	0	22104	
5513	0	22212	
5514	0	22312	
5515	0	22410	
5516	0	22528	
5517	0	22636	
5518	0	22740	
5519	0	22840	
5520	0	22944	
5521	0	23048	
5522	0	23160	
5523	0	23256	
5524	0	23368	
5525	0	23476	
5526	0	23584	
5527	0	23688	
5528	0	23800	
5529	0	23896	
5530	0	24000	
5531	0	24112	
5532	0	24212	
5533	0	24320	
5534	0	24416	
5535	0	24528	
5536	0	24620	
5537	0	24732	
5538	0	24832	
5539	0	24940	
5540	0	25040	
5541	0	25136	
5542	0	25240	
5543	0	25336	
5544	0	25440	
5545	0	25544	
5546	0	25640	
5547	0	25744	
5548	0	25840	
5549	0	25936	
5550	0	26032	
5551	0	26136	
5552	0	26228	
5553	0	26320	
5554	0	26416	
5555	0	26512	
5556	0	26600	
5557	0	26688	
5558	0	26784	
5559	0	26880	
5560	0	26968	
5561	0	27048	
5562	0	27144	
5563	0	27232	
5564	0	27328	
5565	0	27412	
5566	0	27496	
5567	0	27576	
5568	0	27664	
5569	0	27744	
5570	0	27832	
5571	0	27912	
5572	0	28000	
5573	0	28072	
5574	0	28152	
5575	0	28232	
5576	0	28300	
5577	0	28376	
5578	0	28456	
5579	0	28536	
5580	0	28600	
5581	0	28680	
5582	0	28744	
5583	0	28816	
5584	0	28880	
5585	0	28968	
5586	0	29032	
5587	0	29088	
5588	0	29160	
5589	0	29224	
5590	0	29292	
5591	0	29360	
5592	0	29416	
5593	0	29480	
5594	0	29540	
5595	0	29600	
5596	0	29672	
5597	0	29712	
5598	0	29776	
5599	0	29832	
5600	0	29888	
5601	0	29944	
5602	0	29984	
5603	0	30048	
5604	0	30088	
5605	0	30136	
5606	0	30200	
5607	0	30248	
5608	0	30296	
5609	0	30344	
5610	0	30384	
5611	0	30424	
5612	0	30472	
5613	0	30508	
5614	0	30560	
5615	0	30592	
5616	0	30632	
5617	0	30672	
5618	0	30712	
5619	0	30744	
5620	0	30776	
5621	0	30808	
5622	0	30840	
5623	0	30872	
5624	0	30896	
5625	0	30928	
5626	0	30944	
5627	0	30976	
5628	0	30988	
5629	0	31016	
5630	0	31024	
5631	0	31032	
5632	0	31050	
5633	0	31056	
5634	0	31072	
5635	0	31072	
5636	0	31072	
5637	0	31080	
5638	0	31080	
5639	0	31072	
5640	0	31080	
5641	0	31080	
5642	0	31064	
5643	0	31056	
5644	0	31048	
5645	0	31032	
5646	0	31016	
5647	0	31000	
5648	0	30984	
5649	0	30960	
5650	0	30936	
5651	0	30920	
5652	0	30888	
5653	0	30864	
5654	0	30840	
5655	0	30816	
5656	0	30784	
5657	0	30760	
5658	0	30728	
5659	0	30688	
5660	0	30648	
5661	0	30624	
5662	0	30592	
5663	0	30560	
5664	0	30528	
5665	0	30496	
5666	0	30460	
5667	0	30424	
5668	0	30380	
5669	0	30352	
5670	0	30312	
5671	0	30284	
5672	0	30240	
5673	0	30200	
5674	0	30160	
5675	0	30128	
5676	0	30096	
5677	0	30048	
5678	0	30016	
5679	0	29992	
5680	0	29952	
5681	0	29904	
5682	0	29864	
5683	0	29832	
5684	0	29784	
5685	0	29736	
5686	0	29696	
5687	0	29664	
5688	0	29616	
5689	0	29568	
5690	0	29520	
5691	0	29488	
5692	0	29440	
5693	0	29400	
5694	0	29344	
5695	0	29304	
5696	0	29272	
5697	0	29224	
5698	0	29176	
5699	0	29128	
5700	0	29088	
5701	0	29048	
5702	0	29016	
5703	0	28976	
5704	0	28944	
5705	0	28904	
5706	0	28880	
5707	0	28832	
5708	0	28808	
5709	0	28768	
5710	0	28752	
5711	0	28720	
5712	0	28688	
5713	0	28664	
5714	0	28640	
5715	0	28624	
5716	0	28600	
5717	0	28576	
5718	0	28552	
5719	0	28528	
5720	0	28520	
5721	0	28512	
5722	0	28488	
5723	0	28480	
5724	0	28448	
5725	0	28432	
5726	0	28416	
5727	0	28400	
5728	0	28376	
5729	0	28352	
5730	0	28344	
5731	0	28320	
5732	0	28304	
5733	0	28280	
5734	0	28272	
5735	0	28240	
5736	0	28224	
5737	0	28216	
5738	0	28192	
5739	0	28168	
5740	0	28144	
5741	0	28128	
5742	0	28096	
5743	0	28072	
5744	0	28048	
5745	0	28024	
5746	0	27992	
5747	0	27960	
5748	0	27928	
5749	0	27896	
5750	0	27856	
5751	0	27824	
5752	0	27784	
5753	0	27736	
5754	0	27680	
5755	0	27624	
5756	0	27576	
5757	0	27516	
5758	0	27456	
5759	0	27392	
5760	0	27328	
5761	0	27248	
5762	0	27172	
5763	0	27092	
5764	0	27000	
5765	0	26920	
5766	0	26824	
5767	0	26728	
5768	0	26620	
5769	0	26528	
5770	0	26424	
5771	0	26312	
5772	0	26192	
5773	0	26072	
5774	0	25952	
5775	0	25832	
5776	0	25704	
5777	0	25576	
5778	0	25448	
5779	0	25312	
5780	0	25184	
5781	0	25048	
5782	0	24912	
5783	0	24768	
5784	0	24628	
5785	0	24496	
5786	0	24352	
5787	0	24196	
5788	0	24064	
5789	0	23920	
5790	0	23776	
5791	0	23636	
5792	0	23496	
5793	0	23360	
5794	0	23224	
5795	0	23084	
5796	0	22936	
5797	0	22816	
5798	0	22672	
5799	0	22544	
5800	0	22408	
5801	0	22280	
5802	0	22152	
5803	0	22024	
5804	0	21908	
5805	0	21792	
5806	0	21664	
5807	0	21552	
5808	0	21444	
5809	0	21328	
5810	0	21220	
5811	0	21112	
5812	0	21016	
5813	0	20912	
5814	0	20828	
5815	0	20736	
5816	0	20650	
5817	0	20556	
5818	0	20480	
5819	0	20392	
5820	0	20320	
5821	0	20252	
5822	0	20172	
5823	0	20116	
5824	0	20048	
5825	0	19984	
5826	0	19928	
5827	0	19872	
5828	0	19824	
5829	0	19768	
5830	0	19732	
5831	0	19680	
5832	0	19648	
5833	0	19600	
5834	0	19561	
5835	0	19532	
5836	0	19500	
5837	0	19464	
5838	0	19436	
5839	0	19400	
5840	0	19376	
5841	0	19344	
5842	0	19326	
5843	0	19312	
5844	0	19288	
5845	0	19264	
5846	0	19240	
5847	0	19224	
5848	0	19204	
5849	0	19200	
5850	0	19176	
5851	0	19160	
5852	0	19144	
5853	0	19128	
5854	0	19128	
5855	0	19104	
5856	0	19092	
5857	0	19080	
5858	0	19072	
5859	0	19072	
5860	0	19052	
5861	0	19032	
5862	0	19028	
5863	0	19016	
5864	0	19000	
5865	0	18984	
5866	0	18968	
5867	0	18960	
5868	0	18952	
5869	0	18936	
5870	0	18924	
5871	0	18912	
5872	0	18908	
5873	0	18888	
5874	0	18872	
5875	0	18864	
5876	0	18848	
5877	0	18832	
5878	0	18824	
5879	0	18820	
5880	0	18804	
5881	0	18800	
5882	0	18796	
5883	0	18784	
5884	0	18776	
5885	0	18780	
5886	0	18772	
5887	0	18768	
5888	0	18768	
5889	0	18776	
5890	0	18776	
5891	0	18776	
5892	0	18780	
5893	0	18784	
5894	0	18792	
5895	0	18796	
5896	0	18816	
5897	0	18836	
5898	0	18840	
5899	0	18864	
5900	0	18884	
5901	0	18900	
5902	0	18908	
5903	0	18928	
5904	0	18956	
5905	0	18976	
5906	0	19008	
5907	0	19032	
5908	0	19056	
5909	0	19088	
5910	0	19112	
5911	0	19144	
5912	0	19176	
5913	0	19208	
5914	0	19244	
5915	0	19280	
5916	0	19324	
5917	0	19360	
5918	0	19412	
5919	0	19448	
5920	0	19496	
5921	0	19544	
5922	0	19600	
5923	0	19656	
5924	0	19704	
5925	0	19792	
5926	0	19856	
5927	0	19936	
5928	0	20020	
5929	0	20097	
5930	0	20172	
5931	0	20264	
5932	0	20340	
5933	0	20428	
5934	0	20508	
5935	0	20588	
5936	0	20664	
5937	0	20760	
5938	0	20832	
5939	0	20908	
5940	0	20992	
5941	0	21072	
5942	0	21152	
5943	0	21232	
5944	0	21312	
5945	0	21392	
5946	0	21476	
5947	0	21568	
5948	0	21656	
5949	0	21744	
5950	0	21824	
5951	0	21904	
5952	0	22000	
5953	0	22104	
5954	0	22188	
5955	0	22280	
5956	0	22372	
5957	0	22468	
5958	0	22552	
5959	0	22668	
5960	0	22752	
5961	0	22852	
5962	0	22944	
5963	0	23048	
5964	0	23136	
5965	0	23234	
5966	0	23332	
5967	0	23432	
5968	0	23520	
5969	0	23632	
5970	0	23728	
5971	0	23828	
5972	0	23924	
5973	0	24036	
5974	0	24128	
5975	0	24228	
5976	0	24328	
5977	0	24424	
5978	0	24536	
5979	0	24640	
5980	0	24744	
5981	0	24856	
5982	0	24968	
5983	0	25080	
5984	0	25196	
5985	0	25304	
5986	0	25424	
5987	0	25536	
5988	0	25632	
5989	0	25744	
5990	0	25864	
5991	0	25976	
5992	0	26080	
5993	0	26176	
5994	0	26288	
5995	0	26384	
5996	0	26488	
5997	0	26592	
5998	0	26692	
5999	0	26800	
6000	0	26912	
6001	0	27000	
6002	0	27112	
6003	0	27208	
6004	0	27320	
6005	0	27416	
6006	0	27528	
6007	0	27648	
6008	0	27752	
6009	0	27864	
6010	0	27968	
6011	0	28088	
6012	0	28192	
6013	0	28296	
6014	0	28416	
6015	0	28512	
6016	0	28632	
6017	0	28736	
6018	0	28848	
6019	0	28952	
6020	0	29048	
6021	0	29160	
6022	0	29252	
6023	0	29352	
6024	0	29448	
6025	0	29536	
6026	0	29624	
6027	0	29712	
6028	0	29804	
6029	0	29888	
6030	0	29976	
6031	0	30048	
6032	0	30136	
6033	0	30208	
6034	0	30280	
6035	0	30352	
6036	0	30424	
6037	0	30488	
6038	0	30552	
6039	0	30616	
6040	0	30672	
6041	0	30732	
6042	0	30792	
6043	0	30848	
6044	0	30904	
6045	0	30952	
6046	0	31008	
6047	0	31048	
6048	0	31104	
6049	0	31152	
6050	0	31200	
6051	0	31248	
6052	0	31296	
6053	0	31328	
6054	0	31376	
6055	0	31424	
6056	0	31456	
6057	0	31504	
6058	0	31552	
6059	0	31612	
6060	0	31648	
6061	0	31688	
6062	0	31720	
6063	0	31768	
6064	0	31808	
6065	0	31828	
6066	0	31864	
6067	0	31896	
6068	0	31936	
6069	0	31936	
6070	0	31976	
6071	0	32000	
6072	0	32024	
6073	0	32072	
6074	0	32080	
6075	0	32104	
6076	0	32128	
6077	0	32164	
6078	0	32184	
6079	0	32208	
6080	0	32240	
6081	0	32264	
6082	0	32280	
6083	0	32304	
6084	0	32320	
6085	0	32328	
6086	0	32344	
6087	0	32344	
6088	0	32344	
6089	0	32344	
6090	0	32344	
6091	0	32328	
6092	0	32296	
6093	0	32276	
6094	0	32248	
6095	0	32196	
6096	0	32152	
6097	0	32096	
6098	0	32016	
6099	0	31936	
6100	0	31840	
6101	0	31744	
6102	0	31624	
6103	0	31496	
6104	0	31360	
6105	0	31208	
6106	0	31056	
6107	0	30880	
6108	0	30712	
6109	0	30536	
6110	0	30352	
6111	0	30184	
6112	0	30016	
6113	0	29856	
6114	0	29704	
6115	0	29576	
6116	0	29460	
6117	0	29344	
6118	0	29248	
6119	0	29168	
6120	0	29104	
6121	0	29064	
6122	0	29032	
6123	0	29000	
6124	0	28972	
6125	0	28960	
6126	0	28948	
6127	0	28944	
6128	0	28932	
6129	0	28912	
6130	0	28904	
6131	0	28892	
6132	0	28872	
6133	0	28864	
6134	0	28856	
6135	0	28840	
6136	0	28824	
6137	0	28808	
6138	0	28792	
6139	0	28772	
6140	0	28752	
6141	0	28744	
6142	0	28728	
6143	0	28720	
6144	0	28712	
6145	0	28716	
6146	0	28716	
6147	0	28736	
6148	0	28736	
6149	0	28752	
6150	0	28784	
6151	0	28800	
6152	0	28824	
6153	0	28840	
6154	0	28872	
6155	0	28904	
6156	0	28936	
6157	0	28964	
6158	0	29008	
6159	0	29056	
6160	0	29096	
6161	0	29160	
6162	0	29208	
6163	0	29288	
6164	0	29348	
6165	0	29416	
6166	0	29504	
6167	0	29580	
6168	0	29672	
6169	0	29760	
6170	0	29848	
6171	0	29952	
6172	0	30048	
6173	0	30144	
6174	0	30256	
6175	0	30368	
6176	0	30480	
6177	0	30592	
6178	0	30704	
6179	0	30828	
6180	0	30952	
6181	0	31072	
6182	0	31200	
6183	0	31328	
6184	0	31464	
6185	0	31592	
6186	0	31736	
6187	0	31872	
6188	0	32008	
6189	0	32152	
6190	0	32288	
6191	0	32424	
6192	0	32564	
6193	0	32704	
6194	0	32840	
6195	0	32968	
6196	0	33104	
6197	0	33232	
6198	0	33376	
6199	0	33512	
6200	0	33632	
6201	0	33768	
6202	0	33904	
6203	0	34032	
6204	0	34176	
6205	0	34296	
6206	0	34444	
6207	0	34580	
6208	0	34712	
6209	0	34848	
6210	0	34984	
6211	0	35128	
6212	0	35256	
6213	0	35400	
6214	0	35536	
6215	0	35688	
6216	0	35824	
6217	0	35960	
6218	0	36104	
6219	0	36240	
6220	0	36376	
6221	0	36528	
6222	0	36672	
6223	0	36808	
6224	0	36952	
6225	0	37104	
6226	0	37248	
6227	0	37400	
6228	0	37560	
6229	0	37720	
6230	0	37872	
6231	0	38032	
6232	0	38176	
6233	0	38344	
6234	0	38512	
6235	0	38664	
6236	0	38816	
6237	0	38984	
6238	0	39136	
6239	0	39296	
6240	0	39440	
6241	0	39592	
6242	0	39744	
6243	0	39888	
6244	0	40040	
6245	0	40176	
6246	0	40336	
6247	0	40472	
6248	0	40608	
6249	0	40768	
6250	0	40904	
6251	0	41048	
6252	0	41184	
6253	0	41320	
6254	0	41472	
6255	0	41592	
6256	0	41736	
6257	0	41872	
6258	0	42008	
6259	0	42136	
6260	0	42280	
6261	0	42408	
6262	0	42536	
6263	0	42664	
6264	0	42800	
6265	0	42936	
6266	0	43056	
6267	0	43168	
6268	0	43296	
6269	0	43416	
6270	0	43560	
6271	0	43672	
6272	0	43784	
6273	0	43920	
6274	0	44048	
6275	0	44168	
6276	0	44288	
6277	0	44400	
6278	0	44520	
6279	0	44640	
6280	0	44768	
6281	0	44864	
6282	0	44976	
6283	0	45096	
6284	0	45208	
6285	0	45336	
6286	0	45440	
6287	0	45544	
6288	0	45664	
6289	0	45776	
6290	0	45872	
6291	0	45992	
6292	0	46088	
6293	0	46192	
6294	0	46312	
6295	0	46416	
6296	0	46528	
6297	0	46632	
6298	0	46728	
6299	0	46832	
6300	0	46936	
6301	0	47024	
6302	0	47112	
6303	0	47216	
6304	0	47296	
6305	0	47400	
6306	0	47480	
6307	0	47568	
6308	0	47648	
6309	0	47736	
6310	0	47816	
6311	0	47880	
6312	0	47960	
6313	0	48040	
6314	0	48104	
6315	0	48176	
6316	0	48248	
6317	0	48320	
6318	0	48384	
6319	0	48464	
6320	0	48520	
6321	0	48584	
6322	0	48632	
6323	0	48704	
6324	0	48768	
6325	0	48840	
6326	0	48904	
6327	0	48936	
6328	0	49000	
6329	0	49056	
6330	0	49112	
6331	0	49176	
6332	0	49224	
6333	0	49288	
6334	0	49328	
6335	0	49384	
6336	0	49440	
6337	0	49496	
6338	0	49560	
6339	0	49608	
6340	0	49680	
6341	0	49720	
6342	0	49768	
6343	0	49824	
6344	0	49880	
6345	0	49928	
6346	0	49984	
6347	0	50040	
6348	0	50088	
6349	0	50120	
6350	0	50184	
6351	0	50240	
6352	0	50288	
6353	0	50336	
6354	0	50384	
6355	0	50440	
6356	0	50472	
6357	0	50528	
6358	0	50584	
6359	0	50632	
6360	0	50672	
6361	0	50720	
6362	0	50768	
6363	0	50816	
6364	0	50856	
6365	0	50912	
6366	0	50960	
6367	0	51008	
6368	0	51032	
6369	0	51104	
6370	0	51144	
6371	0	51176	
6372	0	51216	
6373	0	51264	
6374	0	51296	
6375	0	51344	
6376	0	51376	
6377	0	51432	
6378	0	51464	
6379	0	51512	
6380	0	51552	
6381	0	51584	
6382	0	51616	
6383	0	51680	
6384	0	51712	
6385	0	51752	
6386	0	51800	
6387	0	51848	
6388	0	51888	
6389	0	51904	
6390	0	51952	
6391	0	52000	
6392	0	52032	
6393	0	52064	
6394	0	52104	
6395	0	52144	
6396	0	52184	
6397	0	52208	
6398	0	52232	
6399	0	52288	
6400	0	52320	
6401	0	52344	
6402	0	52360	
6403	0	52400	
6404	0	52432	
6405	0	52464	
6406	0	52488	
6407	0	52528	
6408	0	52544	
6409	0	52576	
6410	0	52608	
6411	0	52640	
6412	0	52656	
6413	0	52696	
6414	0	52712	
6415	0	52736	
6416	0	52776	
6417	0	52808	
6418	0	52832	
6419	0	52856	
6420	0	52896	
6421	0	52912	
6422	0	52928	
6423	0	52960	
6424	0	52984	
6425	0	53000	
6426	0	53032	
6427	0	53040	
6428	0	53080	
6429	0	53096	
6430	0	53088	
6431	0	53120	
6432	0	53136	
6433	0	53144	
6434	0	53160	
6435	0	53160	
6436	0	53192	
6437	0	53200	
6438	0	53216	
6439	0	53216	
6440	0	53248	
6441	0	53232	
6442	0	53248	
6443	0	53248	
6444	0	53256	
6445	0	53264	
6446	0	53288	
6447	0	53280	
6448	0	53272	
6449	0	53272	
6450	0	53280	
6451	0	53280	
6452	0	53280	
6453	0	53264	
6454	0	53280	
6455	0	53280	
6456	0	53280	
6457	0	53264	
6458	0	53280	
6459	0	53264	
6460	0	53248	
6461	0	53248	
6462	0	53248	
6463	0	53232	
6464	0	53216	
6465	0	53208	
6466	0	53184	
6467	0	53184	
6468	0	53160	
6469	0	53144	
6470	0	53120	
6471	0	53088	
6472	0	53064	
6473	0	53056	
6474	0	53024	
6475	0	52992	
6476	0	52960	
6477	0	52928	
6478	0	52896	
6479	0	52856	
6480	0	52800	
6481	0	52768	
6482	0	52720	
6483	0	52672	
6484	0	52640	
6485	0	52576	
6486	0	52528	
6487	0	52456	
6488	0	52400	
6489	0	52336	
6490	0	52256	
6491	0	52184	
6492	0	52104	
6493	0	52016	
6494	0	51912	
6495	0	51816	
6496	0	51712	
6497	0	51608	
6498	0	51504	
6499	0	51384	
6500	0	51272	
6501	0	51144	
6502	0	51024	
6503	0	50888	
6504	0	50768	
6505	0	50624	
6506	0	50480	
6507	0	50344	
6508	0	50176	
6509	0	50040	
6510	0	49888	
6511	0	49736	
6512	0	49576	
6513	0	49408	
6514	0	49256	
6515	0	49096	
6516	0	48912	
6517	0	48760	
6518	0	48608	
6519	0	48448	
6520	0	48280	
6521	0	48104	
6522	0	47936	
6523	0	47768	
6524	0	47592	
6525	0	47432	
6526	0	47264	
6527	0	47096	
6528	0	46944	
6529	0	46784	
6530	0	46608	
6531	0	46448	
6532	0	46304	
6533	0	46128	
6534	0	45984	
6535	0	45824	
6536	0	45672	
6537	0	45512	
6538	0	45368	
6539	0	45232	
6540	0	45080	
6541	0	44920	
6542	0	44784	
6543	0	44632	
6544	0	44504	
6545	0	44352	
6546	0	44224	
6547	0	44088	
6548	0	43936	
6549	0	43800	
6550	0	43644	
6551	0	43504	
6552	0	43360	
6553	0	43208	
6554	0	43056	
6555	0	42912	
6556	0	42760	
6557	0	42592	
6558	0	42440	
6559	0	42264	
6560	0	42096	
6561	0	41920	
6562	0	41736	
6563	0	41544	
6564	0	41352	
6565	0	41160	
6566	0	40960	
6567	0	40744	
6568	0	40528	
6569	0	40296	
6570	0	40072	
6571	0	39824	
6572	0	39592	
6573	0	39336	
6574	0	39120	
6575	0	38880	
6576	0	38656	
6577	0	38416	
6578	0	38216	
6579	0	38024	
6580	0	37824	
6581	0	37656	
6582	0	37520	
6583	0	37360	
6584	0	37232	
6585	0	37128	
6586	0	37016	
6587	0	36928	
6588	0	36832	
6589	0	36768	
6590	0	36688	
6591	0	36616	
6592	0	36544	
6593	0	36480	
6594	0	36416	
6595	0	36352	
6596	0	36288	
6597	0	36216	
6598	0	36144	
6599	0	36080	
6600	0	36008	
6601	0	35936	
6602	0	35872	
6603	0	35792	
6604	0	35736	
6605	0	35672	
6606	0	35608	
6607	0	35552	
6608	0	35496	
6609	0	35440	
6610	0	35400	
6611	0	35344	
6612	0	35324	
6613	0	35280	
6614	0	35256	
6615	0	35248	
6616	0	35216	
6617	0	35216	
6618	0	35208	
6619	0	35200	
6620	0	35192	
6621	0	35192	
6622	0	35200	
6623	0	35208	
6624	0	35232	
6625	0	35256	
6626	0	35288	
6627	0	35328	
6628	0	35352	
6629	0	35392	
6630	0	35432	
6631	0	35456	
6632	0	35488	
6633	0	35536	
6634	0	35568	
6635	0	35616	
6636	0	35672	
6637	0	35704	
6638	0	35776	
6639	0	35832	
6640	0	35904	
6641	0	35952	
6642	0	36008	
6643	0	36072	
6644	0	36128	
6645	0	36184	
6646	0	36248	
6647	0	36296	
6648	0	36336	
6649	0	36384	
6650	0	36432	
6651	0	36476	
6652	0	36496	
6653	0	36528	
6654	0	36568	
6655	0	36576	
6656	0	36608	
6657	0	36616	
6658	0	36632	
6659	0	36648	
6660	0	36648	
6661	0	36648	
6662	0	36656	
6663	0	36648	
6664	0	36648	
6665	0	36640	
6666	0	36624	
6667	0	36608	
6668	0	36592	
6669	0	36576	
6670	0	36544	
6671	0	36552	
6672	0	36520	
6673	0	36480	
6674	0	36456	
6675	0	36432	
6676	0	36408	
6677	0	36384	
6678	0	36344	
6679	0	36320	
6680	0	36288	
6681	0	36280	
6682	0	36256	
6683	0	36224	
6684	0	36208	
6685	0	36192	
6686	0	36168	
6687	0	36144	
6688	0	36128	
6689	0	36128	
6690	0	36104	
6691	0	36080	
6692	0	36064	
6693	0	36056	
6694	0	36048	
6695	0	36040	
6696	0	36048	
6697	0	36048	
6698	0	36056	
6699	0	36064	
6700	0	36080	
6701	0	36096	
6702	0	36112	
6703	0	36136	
6704	0	36160	
6705	0	36200	
6706	0	36248	
6707	0	36280	
6708	0	36320	
6709	0	36352	
6710	0	36416	
6711	0	36464	
6712	0	36512	
6713	0	36560	
6714	0	36624	
6715	0	36680	
6716	0	36744	
6717	0	36808	
6718	0	36872	
6719	0	36936	
6720	0	36992	
6721	0	37080	
6722	0	37136	
6723	0	37192	
6724	0	37280	
6725	0	37344	
6726	0	37416	
6727	0	37480	
6728	0	37552	
6729	0	37624	
6730	0	37688	
6731	0	37768	
6732	0	37840	
6733	0	37904	
6734	0	37984	
6735	0	38056	
6736	0	38128	
6737	0	38216	
6738	0	38312	
6739	0	38376	
6740	0	38448	
6741	0	38528	
6742	0	38604	
6743	0	38672	
6744	0	38760	
6745	0	38828	
6746	0	38912	
6747	0	38984	
6748	0	39048	
6749	0	39128	
6750	0	39200	
6751	0	39272	
6752	0	39336	
6753	0	39408	
6754	0	39496	
6755	0	39552	
6756	0	39624	
6757	0	39704	
6758	0	39768	
6759	0	39840	
6760	0	39920	
6761	0	39984	
6762	0	40056	
6763	0	40144	
6764	0	40216	
6765	0	40288	
6766	0	40360	
6767	0	40432	
6768	0	40512	
6769	0	40592	
6770	0	40672	
6771	0	40744	
6772	0	40808	
6773	0	40912	
6774	0	40976	
6775	0	41056	
6776	0	41128	
6777	0	41216	
6778	0	41280	
6779	0	41352	
6780	0	41440	
6781	0	41512	
6782	0	41584	
6783	0	41664	
6784	0	41736	
6785	0	41800	
6786	0	41872	
6787	0	41928	
6788	0	42000	
6789	0	42056	
6790	0	42128	
6791	0	42192	
6792	0	42256	
6793	0	42296	
6794	0	42360	
6795	0	42400	
6796	0	42456	
6797	0	42504	
6798	0	42552	
6799	0	42568	
6800	0	42624	
6801	0	42656	
6802	0	42696	
6803	0	42728	
6804	0	42760	
6805	0	42792	
6806	0	42816	
6807	0	42848	
6808	0	42856	
6809	0	42872	
6810	0	42896	
6811	0	42904	
6812	0	42920	
6813	0	42920	
6814	0	42944	
6815	0	42944	
6816	0	42952	
6817	0	42968	
6818	0	42960	
6819	0	42960	
6820	0	42944	
6821	0	42944	
6822	0	42928	
6823	0	42936	
6824	0	42912	
6825	0	42904	
6826	0	42880	
6827	0	42880	
6828	0	42856	
6829	0	42840	
6830	0	42816	
6831	0	42792	
6832	0	42776	
6833	0	42728	
6834	0	42712	
6835	0	42672	
6836	0	42648	
6837	0	42620	
6838	0	42576	
6839	0	42528	
6840	0	42504	
6841	0	42464	
6842	0	42424	
6843	0	42368	
6844	0	42328	
6845	0	42280	
6846	0	42236	
6847	0	42176	
6848	0	42112	
6849	0	42056	
6850	0	42008	
6851	0	41944	
6852	0	41880	
6853	0	41824	
6854	0	41768	
6855	0	41688	
6856	0	41632	
6857	0	41560	
6858	0	41496	
6859	0	41424	
6860	0	41368	
6861	0	41288	
6862	0	41216	
6863	0	41136	
6864	0	41064	
6865	0	40992	
6866	0	40912	
6867	0	40840	
6868	0	40776	
6869	0	40704	
6870	0	40608	
6871	0	40520	
6872	0	40456	
6873	0	40384	
6874	0	40288	
6875	0	40208	
6876	0	40144	
6877	0	40064	
6878	0	39976	
6879	0	39904	
6880	0	39816	
6881	0	39744	
6882	0	39664	
6883	0	39584	
6884	0	39512	
6885	0	39424	
6886	0	39360	
6887	0	39272	
6888	0	39208	
6889	0	39120	
6890	0	39048	
6891	0	38976	
6892	0	38888	
6893	0	38816	
6894	0	38744	
6895	0	38656	
6896	0	38584	
6897	0	38520	
6898	0	38440	
6899	0	38352	
6900	0	38280	
6901	0	38208	
6902	0	38136	
6903	0	38048	
6904	0	37968	
6905	0	37904	
6906	0	37832	
6907	0	37752	
6908	0	37664	
6909	0	37600	
6910	0	37512	
6911	0	37440	
6912	0	37368	
6913	0	37296	
6914	0	37216	
6915	0	37136	
6916	0	37056	
6917	0	36984	
6918	0	36904	
6919	0	36832	
6920	0	36760	
6921	0	36688	
6922	0	36608	
6923	0	36528	
6924	0	36456	
6925	0	36392	
6926	0	36320	
6927	0	36248	
6928	0	36176	
6929	0	36104	
6930	0	36032	
6931	0	35960	
6932	0	35904	
6933	0	35832	
6934	0	35768	
6935	0	35704	
6936	0	35632	
6937	0	35552	
6938	0	35488	
6939	0	35432	
6940	0	35360	
6941	0	35304	
6942	0	35240	
6943	0	35184	
6944	0	35112	
6945	0	35056	
6946	0	34992	
6947	0	34936	
6948	0	34864	
6949	0	34816	
6950	0	34760	
6951	0	34696	
6952	0	34648	
6953	0	34584	
6954	0	34516	
6955	0	34472	
6956	0	34424	
6957	0	34368	
6958	0	34320	
6959	0	34248	
6960	0	34192	
6961	0	34160	
6962	0	34096	
6963	0	34040	
6964	0	33984	
6965	0	33936	
6966	0	33880	
6967	0	33832	
6968	0	33776	
6969	0	33736	
6970	0	33696	
6971	0	33640	
6972	0	33600	
6973	0	33552	
6974	0	33520	
6975	0	33456	
6976	0	33416	
6977	0	33368	
6978	0	33328	
6979	0	33288	
6980	0	33232	
6981	0	33200	
6982	0	33136	
6983	0	33088	
6984	0	33044	
6985	0	32992	
6986	0	32968	
6987	0	32920	
6988	0	32864	
6989	0	32808	
6990	0	32784	
6991	0	32736	
6992	0	32692	
6993	0	32648	
6994	0	32608	
6995	0	32568	
6996	0	32520	
6997	0	32464	
6998	0	32440	
6999	0	32392	
7000	0	32352	
7001	0	32304	
7002	0	32272	
7003	0	32224	
7004	0	32176	
7005	0	32144	
7006	0	32108	
7007	0	32064	
7008	0	32032	
7009	0	32008	
7010	0	31968	
7011	0	31944	
7012	0	31904	
7013	0	31880	
7014	0	31864	
7015	0	31840	
7016	0	31808	
7017	0	31796	
7018	0	31776	
7019	0	31768	
7020	0	31752	
7021	0	31736	
7022	0	31736	
7023	0	31720	
7024	0	31720	
7025	0	31728	
7026	0	31728	
7027	0	31728	
7028	0	31744	
7029	0	31752	
7030	0	31760	
7031	0	31776	
7032	0	31792	
7033	0	31808	
7034	0	31824	
7035	0	31852	
7036	0	31880	
7037	0	31904	
7038	0	31928	
7039	0	31960	
7040	0	31988	
7041	0	32016	
7042	0	32048	
7043	0	32084	
7044	0	32120	
7045	0	32152	
7046	0	32200	
7047	0	32240	
7048	0	32264	
7049	0	32312	
7050	0	32352	
7051	0	32392	
7052	0	32432	
7053	0	32480	
7054	0	32520	
7055	0	32576	
7056	0	32608	
7057	0	32664	
7058	0	32708	
7059	0	32760	
7060	0	32800	
7061	0	32856	
7062	0	32912	
7063	0	32960	
7064	0	33008	
7065	0	33056	
7066	0	33096	
7067	0	33152	
7068	0	33208	
7069	0	33240	
7070	0	33288	
7071	0	33336	
7072	0	33392	
7073	0	33432	
7074	0	33464	
7075	0	33512	
7076	0	33560	
7077	0	33600	
7078	0	33640	
7079	0	33672	
7080	0	33720	
7081	0	33752	
7082	0	33792	
7083	0	33824	
7084	0	33872	
7085	0	33888	
7086	0	33936	
7087	0	33968	
7088	0	33992	
7089	0	34024	
7090	0	34048	
7091	0	34072	
7092	0	34104	
7093	0	34128	
7094	0	34152	
7095	0	34176	
7096	0	34216	
7097	0	34232	
7098	0	34272	
7099	0	34280	
7100	0	34316	
7101	0	34328	
7102	0	34368	
7103	0	34376	
7104	0	34400	
7105	0	34440	
7106	0	34456	
7107	0	34464	
7108	0	34488	
7109	0	34512	
7110	0	34536	
7111	0	34552	
7112	0	34568	
7113	0	34592	
7114	0	34616	
7115	0	34640	
7116	0	34664	
7117	0	34688	
7118	0	34712	
7119	0	34728	
7120	0	34752	
7121	0	34784	
7122	0	34800	
7123	0	34824	
7124	0	34856	
7125	0	34880	
7126	0	34896	
7127	0	34920	
7128	0	34940	
7129	0	34960	
7130	0	34976	
7131	0	35000	
7132	0	35016	
7133	0	35048	
7134	0	35056	
7135	0	35080	
7136	0	35104	
7137	0	35112	
7138	0	35144	
7139	0	35160	
7140	0	35168	
7141	0	35176	
7142	0	35196	
7143	0	35216	
7144	0	35232	
7145	0	35244	
7146	0	35264	
7147	0	35264	
7148	0	35288	
7149	0	35272	
7150	0	35296	
7151	0	35312	
7152	0	35328	
7153	0	35336	
7154	0	35344	
7155	0	35368	
7156	0	35376	
7157	0	35392	
7158	0	35392	
7159	0	35416	
7160	0	35416	
7161	0	35432	
7162	0	35448	
7163	0	35456	
7164	0	35464	
7165	0	35472	
7166	0	35504	
7167	0	35504	
7168	0	35520	
7169	0	35536	
7170	0	35544	
7171	0	35552	
7172	0	35568	
7173	0	35584	
7174	0	35584	
7175	0	35608	
7176	0	35616	
7177	0	35640	
7178	0	35656	
7179	0	35656	
7180	0	35672	
7181	0	35688	
7182	0	35704	
7183	0	35712	
7184	0	35728	
7185	0	35744	
7186	0	35760	
7187	0	35776	
7188	0	35800	
7189	0	35816	
7190	0	35824	
7191	0	35848	
7192	0	35864	
7193	0	35880	
7194	0	35896	
7195	0	35912	
7196	0	35936	
7197	0	35944	
7198	0	35960	
7199	0	35984	
7200	0	36000	
7201	0	36016	
7202	0	36040	
7203	0	36056	
7204	0	36072	
7205	0	36096	
7206	0	36120	
7207	0	36136	
7208	0	36160	
7209	0	36168	
7210	0	36192	
7211	0	36208	
7212	0	36232	
7213	0	36256	
7214	0	36256	
7215	0	36288	
7216	0	36304	
7217	0	36320	
7218	0	36328	
7219	0	36344	
7220	0	36360	
7221	0	36368	
7222	0	36384	
7223	0	36400	
7224	0	36416	
7225	0	36416	
7226	0	36424	
7227	0	36432	
7228	0	36440	
7229	0	36424	
7230	0	36432	
7231	0	36440	
7232	0	36432	
7233	0	36448	
7234	0	36424	
7235	0	36432	
7236	0	36424	
7237	0	36416	
7238	0	36416	
7239	0	36400	
7240	0	36404	
7241	0	36376	
7242	0	36376	
7243	0	36360	
7244	0	36344	
7245	0	36336	
7246	0	36320	
7247	0	36304	
7248	0	36288	
7249	0	36280	
7250	0	36264	
7251	0	36248	
7252	0	36224	
7253	0	36200	
7254	0	36192	
7255	0	36168	
7256	0	36136	
7257	0	36124	
7258	0	36104	
7259	0	36096	
7260	0	36072	
7261	0	36032	
7262	0	36024	
7263	0	36008	
7264	0	35972	
7265	0	35952	
7266	0	35928	
7267	0	35904	
7268	0	35880	
7269	0	35848	
7270	0	35836	
7271	0	35800	
7272	0	35784	
7273	0	35752	
7274	0	35720	
7275	0	35688	
7276	0	35672	
7277	0	35648	
7278	0	35608	
7279	0	35584	
7280	0	35552	
7281	0	35528	
7282	0	35488	
7283	0	35464	
7284	0	35432	
7285	0	35408	
7286	0	35368	
7287	0	35328	
7288	0	35304	
7289	0	35272	
7290	0	35240	
7291	0	35196	
7292	0	35160	
7293	0	35128	
7294	0	35088	
7295	0	35048	
7296	0	35024	
7297	0	34984	
7298	0	34952	
7299	0	34912	
7300	0	34880	
7301	0	34840	
7302	0	34816	
7303	0	34784	
7304	0	34752	
7305	0	34728	
7306	0	34696	
7307	0	34672	
7308	0	34644	
7309	0	34624	
7310	0	34608	
7311	0	34592	
7312	0	34584	
7313	0	34560	
7314	0	34560	
7315	0	34560	
7316	0	34552	
7317	0	34560	
7318	0	34568	
7319	0	34572	
7320	0	34592	
7321	0	34608	
7322	0	34640	
7323	0	34672	
7324	0	34712	
7325	0	34752	
7326	0	34800	
7327	0	34856	
7328	0	34912	
7329	0	34984	
7330	0	35064	
7331	0	35144	
7332	0	35224	
7333	0	35312	
7334	0	35416	
7335	0	35528	
7336	0	35616	
7337	0	35728	
7338	0	35824	
7339	0	35944	
7340	0	36064	
7341	0	36192	
7342	0	36304	
7343	0	36424	
7344	0	36544	
7345	0	36656	
7346	0	36776	
7347	0	36904	
7348	0	37008	
7349	0	37120	
7350	0	37216	
7351	0	37320	
7352	0	37416	
7353	0	37504	
7354	0	37588	
7355	0	37664	
7356	0	37752	
7357	0	37840	
7358	0	37904	
7359	0	37984	
7360	0	38064	
7361	0	38136	
7362	0	38200	
7363	0	38272	
7364	0	38360	
7365	0	38424	
7366	0	38504	
7367	0	38576	
7368	0	38664	
7369	0	38744	
7370	0	38824	
7371	0	38912	
7372	0	38992	
7373	0	39072	
7374	0	39168	
7375	0	39248	
7376	0	39328	
7377	0	39416	
7378	0	39528	
7379	0	39616	
7380	0	39688	
7381	0	39792	
7382	0	39872	
7383	0	39968	
7384	0	40056	
7385	0	40136	
7386	0	40240	
7387	0	40328	
7388	0	40424	
7389	0	40520	
7390	0	40616	
7391	0	40688	
7392	0	40800	
7393	0	40896	
7394	0	40992	
7395	0	41080	
7396	0	41184	
7397	0	41280	
7398	0	41384	
7399	0	41472	
7400	0	41568	
7401	0	41664	
7402	0	41752	
7403	0	41864	
7404	0	41952	
7405	0	42064	
7406	0	42160	
7407	0	42248	
7408	0	42360	
7409	0	42448	
7410	0	42560	
7411	0	42656	
7412	0	42760	
7413	0	42856	
7414	0	42952	
7415	0	43056	
7416	0	43152	
7417	0	43232	
7418	0	43328	
7419	0	43416	
7420	0	43512	
7421	0	43584	
7422	0	43672	
7423	0	43752	
7424	0	43840	
7425	0	43920	
7426	0	43992	
7427	0	44064	
7428	0	44144	
7429	0	44200	
7430	0	44272	
7431	0	44336	
7432	0	44400	
7433	0	44464	
7434	0	44512	
7435	0	44576	
7436	0	44632	
7437	0	44680	
7438	0	44736	
7439	0	44776	
7440	0	44800	
7441	0	44832	
7442	0	44880	
7443	0	44904	
7444	0	44936	
7445	0	44968	
7446	0	44968	
7447	0	45008	
7448	0	45032	
7449	0	45048	
7450	0	45048	
7451	0	45064	
7452	0	45088	
7453	0	45080	
7454	0	45096	
7455	0	45088	
7456	0	45120	
7457	0	45120	
7458	0	45120	
7459	0	45120	
7460	0	45120	
7461	0	45120	
7462	0	45128	
7463	0	45120	
7464	0	45128	
7465	0	45128	
7466	0	45128	
7467	0	45136	
7468	0	45136	
7469	0	45136	
7470	0	45160	
7471	0	45160	
7472	0	45176	
7473	0	45192	
7474	0	45216	
7475	0	45224	
7476	0	45248	
7477	0	45272	
7478	0	45296	
7479	0	45312	
7480	0	45344	
7481	0	45376	
7482	0	45400	
7483	0	45432	
7484	0	45472	
7485	0	45512	
7486	0	45552	
7487	0	45608	
7488	0	45664	
7489	0	45696	
7490	0	45752	
7491	0	45792	
7492	0	45848	
7493	0	45888	
7494	0	45960	
7495	0	46016	
7496	0	46088	
7497	0	46144	
7498	0	46200	
7499	0	46256	
7500	0	46328	
7501	0	46400	
7502	0	46472	
7503	0	46544	
7504	0	46608	
7505	0	46680	
7506	0	46744	
7507	0	46824	
7508	0	46912	
7509	0	46976	
7510	0	47080	
7511	0	47136	
7512	0	47248	
7513	0	47328	
7514	0	47416	
7515	0	47512	
7516	0	47584	
7517	0	47704	
7518	0	47776	
7519	0	47880	
7520	0	47976	
7521	0	48088	
7522	0	48168	
7523	0	48280	
7524	0	48368	
7525	0	48480	
7526	0	48576	
7527	0	48664	
7528	0	48776	
7529	0	48880	
7530	0	48976	
7531	0	49056	
7532	0	49152	
7533	0	49248	
7534	0	49360	
7535	0	49448	
7536	0	49536	
7537	0	49632	
7538	0	49736	
7539	0	49824	
7540	0	49912	
7541	0	49984	
7542	0	50096	
7543	0	50176	
7544	0	50272	
7545	0	50352	
7546	0	50448	
7547	0	50528	
7548	0	50616	
7549	0	50688	
7550	0	50784	
7551	0	50872	
7552	0	50968	
7553	0	51048	
7554	0	51136	
7555	0	51200	
7556	0	51280	
7557	0	51384	
7558	0	51456	
7559	0	51536	
7560	0	51608	
7561	0	51696	
7562	0	51776	
7563	0	51864	
7564	0	51936	
7565	0	52008	
7566	0	52088	
7567	0	52160	
7568	0	52208	
7569	0	52288	
7570	0	52352	
7571	0	52400	
7572	0	52456	
7573	0	52512	
7574	0	52576	
7575	0	52640	
7576	0	52672	
7577	0	52728	
7578	0	52768	
7579	0	52800	
7580	0	52844	
7581	0	52880	
7582	0	52904	
7583	0	52944	
7584	0	52976	
7585	0	53024	
7586	0	53040	
7587	0	53056	
7588	0	53096	
7589	0	53104	
7590	0	53128	
7591	0	53152	
7592	0	53184	
7593	0	53200	
7594	0	53216	
7595	0	53240	
7596	0	53264	
7597	0	53288	
7598	0	53288	
7599	0	53320	
7600	0	53328	
7601	0	53368	
7602	0	53384	
7603	0	53408	
7604	0	53440	
7605	0	53464	
7606	0	53488	
7607	0	53504	
7608	0	53528	
7609	0	53568	
7610	0	53600	
7611	0	53616	
7612	0	53632	
7613	0	53680	
7614	0	53696	
7615	0	53728	
7616	0	53744	
7617	0	53792	
7618	0	53824	
7619	0	53848	
7620	0	53880	
7621	0	53904	
7622	0	53936	
7623	0	53976	
7624	0	54016	
7625	0	54048	
7626	0	54104	
7627	0	54120	
7628	0	54160	
7629	0	54192	
7630	0	54224	
7631	0	54256	
7632	0	54296	
7633	0	54336	
7634	0	54360	
7635	0	54392	
7636	0	54416	
7637	0	54456	
7638	0	54480	
7639	0	54512	
7640	0	54544	
7641	0	54592	
7642	0	54624	
7643	0	54648	
7644	0	54688	
7645	0	54696	
7646	0	54728	
7647	0	54760	
7648	0	54800	
7649	0	54816	
7650	0	54848	
7651	0	54880	
7652	0	54920	
7653	0	54928	
7654	0	54976	
7655	0	55000	
7656	0	55040	
7657	0	55072	
7658	0	55072	
7659	0	55104	
7660	0	55144	
7661	0	55160	
7662	0	55184	
7663	0	55200	
7664	0	55216	
7665	0	55256	
7666	0	55288	
7667	0	55296	
7668	0	55304	
7669	0	55328	
7670	0	55344	
7671	0	55360	
7672	0	55376	
7673	0	55400	
7674	0	55408	
7675	0	55416	
7676	0	55424	
7677	0	55424	
7678	0	55416	
7679	0	55424	
7680	0	55400	
7681	0	55392	
7682	0	55392	
7683	0	55368	
7684	0	55360	
7685	0	55328	
7686	0	55304	
7687	0	55264	
7688	0	55240	
7689	0	55200	
7690	0	55168	
7691	0	55144	
7692	0	55088	
7693	0	55040	
7694	0	54984	
7695	0	54944	
7696	0	54904	
7697	0	54856	
7698	0	54784	
7699	0	54728	
7700	0	54688	
7701	0	54632	
7702	0	54560	
7703	0	54496	
7704	0	54432	
7705	0	54352	
7706	0	54304	
7707	0	54216	
7708	0	54144	
7709	0	54080	
7710	0	53992	
7711	0	53928	
7712	0	53848	
7713	0	53768	
7714	0	53696	
7715	0	53608	
7716	0	53520	
7717	0	53448	
7718	0	53360	
7719	0	53272	
7720	0	53184	
7721	0	53096	
7722	0	52992	
7723	0	52920	
7724	0	52832	
7725	0	52728	
7726	0	52640	
7727	0	52552	
7728	0	52456	
7729	0	52384	
7730	0	52288	
7731	0	52184	
7732	0	52080	
7733	0	51992	
7734	0	51888	
7735	0	51776	
7736	0	51680	
7737	0	51568	
7738	0	51456	
7739	0	51352	
7740	0	51240	
7741	0	51128	
7742	0	51024	
7743	0	50912	
7744	0	50784	
7745	0	50680	
7746	0	50560	
7747	0	50432	
7748	0	50328	
7749	0	50208	
7750	0	50088	
7751	0	49952	
7752	0	49832	
7753	0	49688	
7754	0	49568	
7755	0	49432	
7756	0	49288	
7757	0	49160	
7758	0	49032	
7759	0	48912	
7760	0	48776	
7761	0	48640	
7762	0	48512	
7763	0	48360	
7764	0	48224	
7765	0	48096	
7766	0	47968	
7767	0	47816	
7768	0	47688	
7769	0	47552	
7770	0	47384	
7771	0	47256	
7772	0	47112	
7773	0	46968	
7774	0	46816	
7775	0	46672	
7776	0	46520	
7777	0	46352	
7778	0	46208	
7779	0	46056	
7780	0	45888	
7781	0	45728	
7782	0	45560	
7783	0	45408	
7784	0	45248	
7785	0	45064	
7786	0	44904	
7787	0	44720	
7788	0	44544	
7789	0	44376	
7790	0	44184	
7791	0	44000	
7792	0	43824	
7793	0	43624	
7794	0	43456	
7795	0	43272	
7796	0	43080	
7797	0	42888	
7798	0	42696	
7799	0	42504	
7800	0	42312	
7801	0	42104	
7802	0	41904	
7803	0	41704	
7804	0	41512	
7805	0	41312	
7806	0	41112	
7807	0	40896	
7808	0	40708	
7809	0	40504	
7810	0	40304	
7811	0	40104	
7812	0	39904	
7813	0	39704	
7814	0	39520	
7815	0	39312	
7816	0	39128	
7817	0	38952	
7818	0	38768	
7819	0	38592	
7820	0	38424	
7821	0	38264	
7822	0	38112	
7823	0	37968	
7824	0	37808	
7825	0	37672	
7826	0	37536	
7827	0	37408	
7828	0	37288	
7829	0	37184	
7830	0	37080	
7831	0	36968	
7832	0	36888	
7833	0	36800	
7834	0	36728	
7835	0	36656	
7836	0	36616	
7837	0	36576	
7838	0	36552	
7839	0	36544	
7840	0	36536	
7841	0	36552	
7842	0	36584	
7843	0	36624	
7844	0	36680	
7845	0	36736	
7846	0	36808	
7847	0	36868	
7848	0	36956	
7849	0	37000	
7850	0	37056	
7851	0	37080	
7852	0	37096	
7853	0	37064	
7854	0	37032	
7855	0	36960	
7856	0	36848	
7857	0	36744	
7858	0	36584	
7859	0	36416	
7860	0	36256	
7861	0	36096	
7862	0	35928	
7863	0	35768	
7864	0	35624	
7865	0	35488	
7866	0	35352	
7867	0	35248	
7868	0	35160	
7869	0	35096	
7870	0	35024	
7871	0	34976	
7872	0	34928	
7873	0	34904	
7874	0	34872	
7875	0	34856	
7876	0	34832	
7877	0	34816	
7878	0	34792	
7879	0	34784	
7880	0	34752	
7881	0	34728	
7882	0	34712	
7883	0	34664	
7884	0	34640	
7885	0	34608	
7886	0	34568	
7887	0	34520	
7888	0	34464	
7889	0	34432	
7890	0	34392	
7891	0	34352	
7892	0	34312	
7893	0	34280	
7894	0	34240	
7895	0	34208	
7896	0	34176	
7897	0	34160	
7898	0	34128	
7899	0	34104	
7900	0	34072	
7901	0	34040	
7902	0	34004	
7903	0	33960	
7904	0	33936	
7905	0	33888	
7906	0	33848	
7907	0	33824	
7908	0	33768	
7909	0	33728	
7910	0	33696	
7911	0	33656	
7912	0	33616	
7913	0	33568	
7914	0	33520	
7915	0	33480	
7916	0	33436	
7917	0	33384	
7918	0	33352	
7919	0	33296	
7920	0	33248	
7921	0	33216	
7922	0	33176	
7923	0	33128	
7924	0	33088	
7925	0	33040	
7926	0	32992	
7927	0	32936	
7928	0	32904	
7929	0	32840	
7930	0	32792	
7931	0	32736	
7932	0	32672	
7933	0	32624	
7934	0	32548	
7935	0	32488	
7936	0	32416	
7937	0	32336	
7938	0	32264	
7939	0	32200	
7940	0	32120	
7941	0	32048	
7942	0	31960	
7943	0	31888	
7944	0	31808	
7945	0	31736	
7946	0	31640	
7947	0	31568	
7948	0	31504	
7949	0	31432	
7950	0	31360	
7951	0	31296	
7952	0	31224	
7953	0	31168	
7954	0	31104	
7955	0	31040	
7956	0	31000	
7957	0	30944	
7958	0	30896	
7959	0	30872	
7960	0	30840	
7961	0	30824	
7962	0	30800	
7963	0	30792	
7964	0	30784	
7965	0	30776	
7966	0	30784	
7967	0	30800	
7968	0	30816	
7969	0	30848	
7970	0	30888	
7971	0	30920	
7972	0	30968	
7973	0	31016	
7974	0	31080	
7975	0	31144	
7976	0	31204	
7977	0	31272	
7978	0	31360	
7979	0	31424	
7980	0	31504	
7981	0	31584	
7982	0	31664	
7983	0	31752	
7984	0	31848	
7985	0	31948	
7986	0	32032	
7987	0	32144	
7988	0	32232	
7989	0	32352	
7990	0	32452	
7991	0	32544	
7992	0	32656	
7993	0	32760	
7994	0	32864	
7995	0	32968	
7996	0	33088	
7997	0	33208	
7998	0	33312	
7999	0	33440	
8000	0	33536	
8001	0	33660	
8002	0	33768	
8003	0	33888	
8004	0	34008	
8005	0	34124	
8006	0	34248	
8007	0	34368	
8008	0	34488	
8009	0	34608	
8010	0	34728	
8011	0	34848	
8012	0	34976	
8013	0	35096	
8014	0	35216	
8015	0	35352	
8016	0	35488	
8017	0	35624	
8018	0	35752	
8019	0	35872	
8020	0	36024	
8021	0	36160	
8022	0	36288	
8023	0	36416	
8024	0	36552	
8025	0	36680	
8026	0	36816	
8027	0	36952	
8028	0	37072	
8029	0	37208	
8030	0	37328	
8031	0	37464	
8032	0	37584	
8033	0	37728	
8034	0	37840	
8035	0	37976	
8036	0	38096	
8037	0	38216	
8038	0	38336	
8039	0	38448	
8040	0	38576	
8041	0	38688	
8042	0	38792	
8043	0	38896	
8044	0	39016	
8045	0	39112	
8046	0	39232	
8047	0	39336	
8048	0	39432	
8049	0	39536	
