# OpenSignals Text File Format
# {"00:07:80:F9:DE:B2": {"sensor": ["RESPIRATION"], "device name": "00:07:80:F9:DE:B2", "column": ["nSeq", "DI", "CH1"], "sync interval": 2, "time": "13:41:4.877", "comments": "", "device connection": "BTH00:07:80:F9:DE:B2", "channels": [1], "keywords": "", "mode": 0, "digital IO": [0, 1], "firmware version": 773, "device": "biosignalsplux", "position": 0, "sampling rate": 1000, "label": ["CH1"], "resolution": [16], "date": "2018-9-25", "special": [{}]}}
# EndOfHeader
0	0	19780	
1	0	19788	
2	0	19796	
3	0	19788	
4	0	19800	
5	0	19800	
6	0	19816	
7	0	19816	
8	0	19816	
9	0	19832	
10	0	19828	
11	0	19840	
12	0	19840	
13	0	19848	
14	0	19852	
15	0	19856	
16	0	19864	
17	0	19872	
18	0	19876	
19	0	19878	
20	0	19884	
21	0	19896	
22	0	19896	
23	0	19908	
24	0	19904	
25	0	19954	
26	0	19920	
27	0	19928	
28	0	19944	
29	0	19944	
30	0	19960	
31	0	19968	
32	0	19968	
33	0	19984	
34	0	19976	
35	0	19984	
36	0	19996	
37	0	20000	
38	0	20020	
39	0	20016	
40	0	20020	
41	0	20040	
42	0	20040	
43	0	20050	
44	0	20056	
45	0	20060	
46	0	20072	
47	0	20076	
48	0	20088	
49	0	20088	
50	0	20096	
51	0	20112	
52	0	20112	
53	0	20132	
54	0	20136	
55	0	20144	
56	0	20148	
57	0	20148	
58	0	20168	
59	0	20176	
60	0	20192	
61	0	20192	
62	0	20200	
63	0	20208	
64	0	20224	
65	0	20224	
66	0	20240	
67	0	20244	
68	0	20256	
69	0	20260	
70	0	20268	
71	0	20288	
72	0	20288	
73	0	20300	
74	0	20304	
75	0	20316	
76	0	20320	
77	0	20336	
78	0	20344	
79	0	20360	
80	0	20360	
81	0	20360	
82	0	20384	
83	0	20392	
84	0	20392	
85	0	20396	
86	0	20408	
87	0	20416	
88	0	20420	
89	0	20432	
90	0	20440	
91	0	20452	
92	0	20452	
93	0	20472	
94	0	20472	
95	0	20480	
96	0	20488	
97	0	20504	
98	0	20504	
99	0	20514	
100	0	20528	
101	0	20548	
102	0	20544	
103	0	20568	
104	0	20568	
105	0	20588	
106	0	20596	
107	0	20604	
108	0	20608	
109	0	20620	
110	0	20636	
111	0	20644	
112	0	20656	
113	0	20668	
114	0	20680	
115	0	20688	
116	0	20708	
117	0	20716	
118	0	20728	
119	0	20744	
120	0	20744	
121	0	20768	
122	0	20784	
123	0	20792	
124	0	20808	
125	0	20820	
126	0	20832	
127	0	20832	
128	0	20841	
129	0	20860	
130	0	20872	
131	0	20888	
132	0	20892	
133	0	20912	
134	0	20912	
135	0	20928	
136	0	20944	
137	0	20954	
138	0	20968	
139	0	20984	
140	0	20992	
141	0	21008	
142	0	21016	
143	0	21032	
144	0	21048	
145	0	21056	
146	0	21072	
147	0	21076	
148	0	21088	
149	0	21104	
150	0	21112	
151	0	21128	
152	0	21136	
153	0	21156	
154	0	21168	
155	0	21169	
156	0	21184	
157	0	21200	
158	0	21212	
159	0	21228	
160	0	21240	
161	0	21248	
162	0	21256	
163	0	21272	
164	0	21284	
165	0	21296	
166	0	21312	
167	0	21320	
168	0	21328	
169	0	21332	
170	0	21352	
171	0	21364	
172	0	21376	
173	0	21396	
174	0	21404	
175	0	21408	
176	0	21416	
177	0	21428	
178	0	21440	
179	0	21456	
180	0	21464	
181	0	21472	
182	0	21488	
183	0	21496	
184	0	21512	
185	0	21520	
186	0	21530	
187	0	21544	
188	0	21552	
189	0	21560	
190	0	21568	
191	0	21592	
192	0	21600	
193	0	21608	
194	0	21620	
195	0	21632	
196	0	21640	
197	0	21652	
198	0	21656	
199	0	21668	
200	0	21680	
201	0	21696	
202	0	21696	
203	0	21712	
204	0	21720	
205	0	21728	
206	0	21744	
207	0	21752	
208	0	21768	
209	0	21776	
210	0	21784	
211	0	21788	
212	0	21800	
213	0	21808	
214	0	21824	
215	0	21832	
216	0	21840	
217	0	21852	
218	0	21864	
219	0	21872	
220	0	21876	
221	0	21880	
222	0	21896	
223	0	21900	
224	0	21912	
225	0	21920	
226	0	21936	
227	0	21936	
228	0	21952	
229	0	21952	
230	0	21960	
231	0	21964	
232	0	21984	
233	0	21984	
234	0	22004	
235	0	22008	
236	0	22016	
237	0	22020	
238	0	22024	
239	0	22032	
240	0	22048	
241	0	22056	
242	0	22048	
243	0	22064	
244	0	22068	
245	0	22072	
246	0	22088	
247	0	22092	
248	0	22104	
249	0	22112	
250	0	22120	
251	0	22120	
252	0	22128	
253	0	22136	
254	0	22160	
255	0	22156	
256	0	22168	
257	0	22168	
258	0	22176	
259	0	22184	
260	0	22192	
261	0	22192	
262	0	22212	
263	0	22208	
264	0	22228	
265	0	22232	
266	0	22232	
267	0	22252	
268	0	22248	
269	0	22256	
270	0	22272	
271	0	22276	
272	0	22280	
273	0	22288	
274	0	22292	
275	0	22304	
276	0	22312	
277	0	22328	
278	0	22332	
279	0	22348	
280	0	22352	
281	0	22356	
282	0	22368	
283	0	22376	
284	0	22384	
285	0	22392	
286	0	22408	
287	0	22416	
288	0	22424	
289	0	22432	
290	0	22444	
291	0	22456	
292	0	22464	
293	0	22472	
294	0	22488	
295	0	22496	
296	0	22504	
297	0	22512	
298	0	22520	
299	0	22536	
300	0	22552	
301	0	22560	
302	0	22568	
303	0	22584	
304	0	22588	
305	0	22604	
306	0	22608	
307	0	22632	
308	0	22636	
309	0	22648	
310	0	22656	
311	0	22672	
312	0	22676	
313	0	22684	
314	0	22696	
315	0	22708	
316	0	22720	
317	0	22728	
318	0	22736	
319	0	22752	
320	0	22764	
321	0	22768	
322	0	22784	
323	0	22800	
324	0	22808	
325	0	22816	
326	0	22840	
327	0	22848	
328	0	22856	
329	0	22872	
330	0	22872	
331	0	22884	
332	0	22898	
333	0	22900	
334	0	22912	
335	0	22932	
336	0	22944	
337	0	22952	
338	0	22960	
339	0	22968	
340	0	22980	
341	0	22992	
342	0	23004	
343	0	23008	
344	0	23020	
345	0	23032	
346	0	23056	
347	0	23052	
348	0	23064	
349	0	23072	
350	0	23088	
351	0	23092	
352	0	23104	
353	0	23114	
354	0	23132	
355	0	23136	
356	0	23148	
357	0	23152	
358	0	23164	
359	0	23180	
360	0	23196	
361	0	23200	
362	0	23208	
363	0	23220	
364	0	23232	
365	0	23240	
366	0	23256	
367	0	23264	
368	0	23268	
369	0	23280	
370	0	23300	
371	0	23312	
372	0	23320	
373	0	23332	
374	0	23332	
375	0	23346	
376	0	23364	
377	0	23368	
378	0	23384	
379	0	23392	
380	0	23408	
381	0	23408	
382	0	23424	
383	0	23432	
384	0	23444	
385	0	23460	
386	0	23472	
387	0	23480	
388	0	23488	
389	0	23500	
390	0	23512	
391	0	23528	
392	0	23536	
393	0	23544	
394	0	23560	
395	0	23568	
396	0	23584	
397	0	23592	
398	0	23616	
399	0	23624	
400	0	23640	
401	0	23640	
402	0	23656	
403	0	23656	
404	0	23672	
405	0	23688	
406	0	23700	
407	0	23716	
408	0	23720	
409	0	23736	
410	0	23744	
411	0	23764	
412	0	23768	
413	0	23780	
414	0	23808	
415	0	23816	
416	0	23832	
417	0	23832	
418	0	23844	
419	0	23864	
420	0	23880	
421	0	23880	
422	0	23896	
423	0	23912	
424	0	23928	
425	0	23944	
426	0	23936	
427	0	23968	
428	0	23976	
429	0	23992	
430	0	24008	
431	0	24016	
432	0	24032	
433	0	24048	
434	0	24064	
435	0	24074	
436	0	24088	
437	0	24096	
438	0	24112	
439	0	24128	
440	0	24140	
441	0	24160	
442	0	24176	
443	0	24188	
444	0	24200	
445	0	24220	
446	0	24232	
447	0	24244	
448	0	24256	
449	0	24272	
450	0	24288	
451	0	24296	
452	0	24320	
453	0	24328	
454	0	24344	
455	0	24360	
456	0	24372	
457	0	24392	
458	0	24392	
459	0	24416	
460	0	24432	
461	0	24440	
462	0	24456	
463	0	24480	
464	0	24488	
465	0	24496	
466	0	24512	
467	0	24528	
468	0	24544	
469	0	24560	
470	0	24580	
471	0	24592	
472	0	24608	
473	0	24624	
474	0	24644	
475	0	24656	
476	0	24660	
477	0	24684	
478	0	24704	
479	0	24712	
480	0	24728	
481	0	24744	
482	0	24760	
483	0	24780	
484	0	24800	
485	0	24808	
486	0	24832	
487	0	24840	
488	0	24864	
489	0	24868	
490	0	24888	
491	0	24904	
492	0	24928	
493	0	24936	
494	0	24952	
495	0	24976	
496	0	24988	
497	0	25000	
498	0	25024	
499	0	25032	
500	0	25056	
501	0	25072	
502	0	25096	
503	0	25104	
504	0	25120	
505	0	25140	
506	0	25144	
507	0	25160	
508	0	25192	
509	0	25200	
510	0	25216	
511	0	25228	
512	0	25248	
513	0	25264	
514	0	25280	
515	0	25296	
516	0	25316	
517	0	25324	
518	0	25328	
519	0	25344	
520	0	25352	
521	0	25380	
522	0	25384	
523	0	25408	
524	0	25416	
525	0	25424	
526	0	25432	
527	0	25456	
528	0	25472	
529	0	25472	
530	0	25496	
531	0	25512	
532	0	25520	
533	0	25536	
534	0	25552	
535	0	25552	
536	0	25576	
537	0	25592	
538	0	25600	
539	0	25616	
540	0	25632	
541	0	25640	
542	0	25664	
543	0	25676	
544	0	25688	
545	0	25696	
546	0	25720	
547	0	25724	
548	0	25736	
549	0	25748	
550	0	25761	
551	0	25776	
552	0	25792	
553	0	25800	
554	0	25808	
555	0	25824	
556	0	25840	
557	0	25856	
558	0	25864	
559	0	25876	
560	0	25888	
561	0	25888	
562	0	25904	
563	0	25908	
564	0	25924	
565	0	25928	
566	0	25944	
567	0	25952	
568	0	25952	
569	0	25960	
570	0	25976	
571	0	25984	
572	0	25992	
573	0	25996	
574	0	26016	
575	0	26016	
576	0	26032	
577	0	26048	
578	0	26048	
579	0	26052	
580	0	26064	
581	0	26072	
582	0	26076	
583	0	26088	
584	0	26096	
585	0	26112	
586	0	26112	
587	0	26136	
588	0	26140	
589	0	26152	
590	0	26164	
591	0	26176	
592	0	26192	
593	0	26192	
594	0	26208	
595	0	26216	
596	0	26224	
597	0	26248	
598	0	26248	
599	0	26256	
600	0	26280	
601	0	26288	
602	0	26296	
603	0	26308	
604	0	26320	
605	0	26336	
606	0	26344	
607	0	26360	
608	0	26376	
609	0	26384	
610	0	26400	
611	0	26400	
612	0	26424	
613	0	26432	
614	0	26448	
615	0	26464	
616	0	26472	
617	0	26488	
618	0	26504	
619	0	26504	
620	0	26528	
621	0	26552	
622	0	26552	
623	0	26576	
624	0	26584	
625	0	26592	
626	0	26616	
627	0	26624	
628	0	26644	
629	0	26656	
630	0	26672	
631	0	26696	
632	0	26704	
633	0	26712	
634	0	26736	
635	0	26752	
636	0	26768	
637	0	26784	
638	0	26800	
639	0	26808	
640	0	26832	
641	0	26844	
642	0	26872	
643	0	26888	
644	0	26896	
645	0	26904	
646	0	26928	
647	0	26944	
648	0	26956	
649	0	26976	
650	0	26992	
651	0	27000	
652	0	27024	
653	0	27032	
654	0	27048	
655	0	27064	
656	0	27088	
657	0	27096	
658	0	27108	
659	0	27128	
660	0	27136	
661	0	27160	
662	0	27180	
663	0	27184	
664	0	27208	
665	0	27224	
666	0	27232	
667	0	27248	
668	0	27264	
669	0	27276	
670	0	27292	
671	0	27312	
672	0	27328	
673	0	27340	
674	0	27360	
675	0	27376	
676	0	27392	
677	0	27408	
678	0	27424	
679	0	27448	
680	0	27456	
681	0	27488	
682	0	27496	
683	0	27504	
684	0	27520	
685	0	27536	
686	0	27552	
687	0	27568	
688	0	27592	
689	0	27608	
690	0	27624	
691	0	27640	
692	0	27656	
693	0	27680	
694	0	27688	
695	0	27712	
696	0	27724	
697	0	27752	
698	0	27764	
699	0	27792	
700	0	27808	
701	0	27808	
702	0	27840	
703	0	27860	
704	0	27880	
705	0	27896	
706	0	27904	
707	0	27936	
708	0	27956	
709	0	27968	
710	0	27992	
711	0	28012	
712	0	28036	
713	0	28048	
714	0	28072	
715	0	28096	
716	0	28112	
717	0	28136	
718	0	28152	
719	0	28176	
720	0	28196	
721	0	28208	
722	0	28224	
723	0	28256	
724	0	28272	
725	0	28288	
726	0	28312	
727	0	28332	
728	0	28352	
729	0	28368	
730	0	28392	
731	0	28416	
732	0	28432	
733	0	28448	
734	0	28480	
735	0	28504	
736	0	28516	
737	0	28544	
738	0	28560	
739	0	28580	
740	0	28608	
741	0	28624	
742	0	28644	
743	0	28660	
744	0	28680	
745	0	28696	
746	0	28720	
747	0	28744	
748	0	28768	
749	0	28776	
750	0	28800	
751	0	28824	
752	0	28840	
753	0	28864	
754	0	28884	
755	0	28904	
756	0	28920	
757	0	28940	
758	0	28968	
759	0	28992	
760	0	29000	
761	0	29032	
762	0	29048	
763	0	29064	
764	0	29096	
765	0	29100	
766	0	29124	
767	0	29144	
768	0	29152	
769	0	29168	
770	0	29200	
771	0	29224	
772	0	29232	
773	0	29256	
774	0	29284	
775	0	29296	
776	0	29320	
777	0	29344	
778	0	29360	
779	0	29380	
780	0	29400	
781	0	29420	
782	0	29440	
783	0	29464	
784	0	29480	
785	0	29504	
786	0	29528	
787	0	29552	
788	0	29568	
789	0	29576	
790	0	29608	
791	0	29632	
792	0	29648	
793	0	29668	
794	0	29696	
795	0	29720	
796	0	29736	
797	0	29760	
798	0	29768	
799	0	29792	
800	0	29800	
801	0	29828	
802	0	29856	
803	0	29872	
804	0	29896	
805	0	29912	
806	0	29928	
807	0	29952	
808	0	29984	
809	0	30000	
810	0	30016	
811	0	30040	
812	0	30048	
813	0	30080	
814	0	30092	
815	0	30112	
816	0	30128	
817	0	30152	
818	0	30168	
819	0	30188	
820	0	30208	
821	0	30232	
822	0	30256	
823	0	30264	
824	0	30284	
825	0	30304	
826	0	30328	
827	0	30344	
828	0	30368	
829	0	30392	
830	0	30400	
831	0	30412	
832	0	30440	
833	0	30448	
834	0	30468	
835	0	30496	
836	0	30512	
837	0	30528	
838	0	30552	
839	0	30560	
840	0	30580	
841	0	30600	
842	0	30612	
843	0	30640	
844	0	30656	
845	0	30680	
846	0	30688	
847	0	30712	
848	0	30720	
849	0	30744	
850	0	30764	
851	0	30784	
852	0	30804	
853	0	30816	
854	0	30840	
855	0	30856	
856	0	30884	
857	0	30896	
858	0	30920	
859	0	30940	
860	0	30944	
861	0	30964	
862	0	30984	
863	0	31012	
864	0	31024	
865	0	31040	
866	0	31056	
867	0	31080	
868	0	31104	
869	0	31112	
870	0	31136	
871	0	31152	
872	0	31184	
873	0	31192	
874	0	31216	
875	0	31228	
876	0	31248	
877	0	31264	
878	0	31280	
879	0	31304	
880	0	31328	
881	0	31344	
882	0	31360	
883	0	31392	
884	0	31400	
885	0	31424	
886	0	31432	
887	0	31456	
888	0	31472	
889	0	31488	
890	0	31520	
891	0	31528	
892	0	31544	
893	0	31564	
894	0	31584	
895	0	31592	
896	0	31616	
897	0	31632	
898	0	31648	
899	0	31680	
900	0	31688	
901	0	31720	
902	0	31732	
903	0	31740	
904	0	31768	
905	0	31784	
906	0	31808	
907	0	31818	
908	0	31832	
909	0	31848	
910	0	31872	
911	0	31892	
912	0	31896	
913	0	31928	
914	0	31936	
915	0	31952	
916	0	31976	
917	0	31992	
918	0	32008	
919	0	32040	
920	0	32048	
921	0	32072	
922	0	32080	
923	0	32104	
924	0	32112	
925	0	32144	
926	0	32160	
927	0	32184	
928	0	32200	
929	0	32216	
930	0	32236	
931	0	32248	
932	0	32280	
933	0	32296	
934	0	32312	
935	0	32328	
936	0	32352	
937	0	32368	
938	0	32392	
939	0	32408	
940	0	32428	
941	0	32448	
942	0	32464	
943	0	32488	
944	0	32496	
945	0	32520	
946	0	32552	
947	0	32568	
948	0	32588	
949	0	32616	
950	0	32616	
951	0	32640	
952	0	32664	
953	0	32676	
954	0	32704	
955	0	32728	
956	0	32736	
957	0	32768	
958	0	32784	
959	0	32800	
960	0	32816	
961	0	32840	
962	0	32864	
963	0	32872	
964	0	32892	
965	0	32912	
966	0	32936	
967	0	32944	
968	0	32976	
969	0	33000	
970	0	33008	
971	0	33032	
972	0	33048	
973	0	33072	
974	0	33080	
975	0	33096	
976	0	33124	
977	0	33136	
978	0	33152	
979	0	33184	
980	0	33192	
981	0	33208	
982	0	33248	
983	0	33252	
984	0	33264	
985	0	33280	
986	0	33296	
987	0	33320	
988	0	33336	
989	0	33352	
990	0	33368	
991	0	33392	
992	0	33404	
993	0	33424	
994	0	33440	
995	0	33472	
996	0	33480	
997	0	33496	
998	0	33504	
999	0	33520	
1000	0	33560	
1001	0	33560	
1002	0	33576	
1003	0	33600	
1004	0	33616	
1005	0	33640	
1006	0	33648	
1007	0	33672	
1008	0	33688	
1009	0	33696	
1010	0	33720	
1011	0	33744	
1012	0	33760	
1013	0	33776	
1014	0	33792	
1015	0	33816	
1016	0	33832	
1017	0	33848	
1018	0	33872	
1019	0	33880	
1020	0	33912	
1021	0	33916	
1022	0	33944	
1023	0	33960	
1024	0	33976	
1025	0	34000	
1026	0	34032	
1027	0	34040	
1028	0	34064	
1029	0	34080	
1030	0	34088	
1031	0	34112	
1032	0	34144	
1033	0	34160	
1034	0	34168	
1035	0	34192	
1036	0	34216	
1037	0	34232	
1038	0	34248	
1039	0	34264	
1040	0	34280	
1041	0	34312	
1042	0	34328	
1043	0	34348	
1044	0	34376	
1045	0	34400	
1046	0	34408	
1047	0	34424	
1048	0	34440	
1049	0	34476	
1050	0	34488	
1051	0	34508	
1052	0	34528	
1053	0	34536	
1054	0	34568	
1055	0	34592	
1056	0	34600	
1057	0	34632	
1058	0	34648	
1059	0	34672	
1060	0	34688	
1061	0	34704	
1062	0	34736	
1063	0	34752	
1064	0	34768	
1065	0	34784	
1066	0	34812	
1067	0	34840	
1068	0	34848	
1069	0	34880	
1070	0	34888	
1071	0	34920	
1072	0	34944	
1073	0	34960	
1074	0	34976	
1075	0	35000	
1076	0	35032	
1077	0	35040	
1078	0	35056	
1079	0	35080	
1080	0	35096	
1081	0	35112	
1082	0	35136	
1083	0	35160	
1084	0	35184	
1085	0	35208	
1086	0	35224	
1087	0	35240	
1088	0	35264	
1089	0	35272	
1090	0	35296	
1091	0	35320	
1092	0	35336	
1093	0	35360	
1094	0	35376	
1095	0	35400	
1096	0	35424	
1097	0	35440	
1098	0	35456	
1099	0	35488	
1100	0	35496	
1101	0	35504	
1102	0	35528	
1103	0	35552	
1104	0	35568	
1105	0	35592	
1106	0	35624	
1107	0	35624	
1108	0	35648	
1109	0	35672	
1110	0	35680	
1111	0	35704	
1112	0	35736	
1113	0	35744	
1114	0	35768	
1115	0	35792	
1116	0	35800	
1117	0	35824	
1118	0	35840	
1119	0	35864	
1120	0	35888	
1121	0	35904	
1122	0	35920	
1123	0	35936	
1124	0	35960	
1125	0	35984	
1126	0	36000	
1127	0	36020	
1128	0	36040	
1129	0	36056	
1130	0	36072	
1131	0	36104	
1132	0	36112	
1133	0	36144	
1134	0	36160	
1135	0	36176	
1136	0	36184	
1137	0	36216	
1138	0	36240	
1139	0	36256	
1140	0	36272	
1141	0	36288	
1142	0	36304	
1143	0	36336	
1144	0	36352	
1145	0	36376	
1146	0	36384	
1147	0	36416	
1148	0	36424	
1149	0	36448	
1150	0	36472	
1151	0	36480	
1152	0	36504	
1153	0	36528	
1154	0	36544	
1155	0	36576	
1156	0	36600	
1157	0	36608	
1158	0	36632	
1159	0	36648	
1160	0	36664	
1161	0	36688	
1162	0	36704	
1163	0	36720	
1164	0	36744	
1165	0	36768	
1166	0	36776	
1167	0	36800	
1168	0	36816	
1169	0	36840	
1170	0	36848	
1171	0	36872	
1172	0	36888	
1173	0	36912	
1174	0	36928	
1175	0	36936	
1176	0	36960	
1177	0	36980	
1178	0	36984	
1179	0	37008	
1180	0	37024	
1181	0	37040	
1182	0	37056	
1183	0	37080	
1184	0	37080	
1185	0	37104	
1186	0	37128	
1187	0	37136	
1188	0	37152	
1189	0	37160	
1190	0	37184	
1191	0	37192	
1192	0	37216	
1193	0	37224	
1194	0	37240	
1195	0	37256	
1196	0	37264	
1197	0	37288	
1198	0	37296	
1199	0	37320	
1200	0	37320	
1201	0	37352	
1202	0	37360	
1203	0	37376	
1204	0	37392	
1205	0	37392	
1206	0	37408	
1207	0	37432	
1208	0	37440	
1209	0	37448	
1210	0	37472	
1211	0	37488	
1212	0	37496	
1213	0	37504	
1214	0	37512	
1215	0	37520	
1216	0	37552	
1217	0	37552	
1218	0	37568	
1219	0	37584	
1220	0	37600	
1221	0	37600	
1222	0	37616	
1223	0	37616	
1224	0	37632	
1225	0	37656	
1226	0	37656	
1227	0	37680	
1228	0	37688	
1229	0	37704	
1230	0	37712	
1231	0	37720	
1232	0	37736	
1233	0	37744	
1234	0	37752	
1235	0	37768	
1236	0	37784	
1237	0	37792	
1238	0	37792	
1239	0	37816	
1240	0	37824	
1241	0	37824	
1242	0	37832	
1243	0	37848	
1244	0	37848	
1245	0	37864	
1246	0	37864	
1247	0	37880	
1248	0	37896	
1249	0	37912	
1250	0	37920	
1251	0	37928	
1252	0	37936	
1253	0	37952	
1254	0	37960	
1255	0	37960	
1256	0	37984	
1257	0	37992	
1258	0	38000	
1259	0	38008	
1260	0	38016	
1261	0	38016	
1262	0	38024	
1263	0	38040	
1264	0	38048	
1265	0	38056	
1266	0	38064	
1267	0	38080	
1268	0	38080	
1269	0	38104	
1270	0	38104	
1271	0	38116	
1272	0	38128	
1273	0	38124	
1274	0	38144	
1275	0	38144	
1276	0	38160	
1277	0	38168	
1278	0	38184	
1279	0	38192	
1280	0	38192	
1281	0	38208	
1282	0	38192	
1283	0	38208	
1284	0	38208	
1285	0	38224	
1286	0	38224	
1287	0	38224	
1288	0	38240	
1289	0	38240	
1290	0	38240	
1291	0	38248	
1292	0	38248	
1293	0	38264	
1294	0	38264	
1295	0	38264	
1296	0	38268	
1297	0	38280	
1298	0	38280	
1299	0	38296	
1300	0	38288	
1301	0	38296	
1302	0	38296	
1303	0	38304	
1304	0	38296	
1305	0	38312	
1306	0	38312	
1307	0	38304	
1308	0	38320	
1309	0	38320	
1310	0	38312	
1311	0	38336	
1312	0	38316	
1313	0	38336	
1314	0	38336	
1315	0	38336	
1316	0	38336	
1317	0	38336	
1318	0	38360	
1319	0	38352	
1320	0	38352	
1321	0	38352	
1322	0	38368	
1323	0	38368	
1324	0	38360	
1325	0	38376	
1326	0	38376	
1327	0	38368	
1328	0	38368	
1329	0	38384	
1330	0	38384	
1331	0	38384	
1332	0	38392	
1333	0	38384	
1334	0	38376	
1335	0	38396	
1336	0	38384	
1337	0	38392	
1338	0	38392	
1339	0	38384	
1340	0	38384	
1341	0	38380	
1342	0	38384	
1343	0	38384	
1344	0	38376	
1345	0	38376	
1346	0	38368	
1347	0	38368	
1348	0	38368	
1349	0	38368	
1350	0	38368	
1351	0	38368	
1352	0	38368	
1353	0	38368	
1354	0	38352	
1355	0	38368	
1356	0	38360	
1357	0	38368	
1358	0	38368	
1359	0	38352	
1360	0	38360	
1361	0	38360	
1362	0	38352	
1363	0	38360	
1364	0	38368	
1365	0	38376	
1366	0	38368	
1367	0	38368	
1368	0	38368	
1369	0	38368	
1370	0	38368	
1371	0	38368	
1372	0	38368	
1373	0	38376	
1374	0	38376	
1375	0	38368	
1376	0	38376	
1377	0	38376	
1378	0	38384	
1379	0	38384	
1380	0	38400	
1381	0	38384	
1382	0	38384	
1383	0	38384	
1384	0	38392	
1385	0	38392	
1386	0	38384	
1387	0	38392	
1388	0	38408	
1389	0	38384	
1390	0	38396	
1391	0	38392	
1392	0	38416	
1393	0	38400	
1394	0	38400	
1395	0	38408	
1396	0	38408	
1397	0	38400	
1398	0	38400	
1399	0	38408	
1400	0	38416	
1401	0	38400	
1402	0	38408	
1403	0	38400	
1404	0	38416	
1405	0	38424	
1406	0	38408	
1407	0	38416	
1408	0	38408	
1409	0	38408	
1410	0	38408	
1411	0	38416	
1412	0	38416	
1413	0	38416	
1414	0	38424	
1415	0	38416	
1416	0	38424	
1417	0	38416	
1418	0	38424	
1419	0	38432	
1420	0	38424	
1421	0	38440	
1422	0	38416	
1423	0	38432	
1424	0	38432	
1425	0	38432	
1426	0	38432	
1427	0	38432	
1428	0	38432	
1429	0	38448	
1430	0	38432	
1431	0	38424	
1432	0	38432	
1433	0	38432	
1434	0	38432	
1435	0	38440	
1436	0	38440	
1437	0	38448	
1438	0	38448	
1439	0	38432	
1440	0	38456	
1441	0	38444	
1442	0	38456	
1443	0	38456	
1444	0	38464	
1445	0	38448	
1446	0	38456	
1447	0	38456	
1448	0	38464	
1449	0	38464	
1450	0	38464	
1451	0	38464	
1452	0	38464	
1453	0	38472	
1454	0	38464	
1455	0	38480	
1456	0	38480	
1457	0	38472	
1458	0	38464	
1459	0	38472	
1460	0	38488	
1461	0	38488	
1462	0	38480	
1463	0	38480	
1464	0	38496	
1465	0	38488	
1466	0	38496	
1467	0	38496	
1468	0	38496	
1469	0	38504	
1470	0	38512	
1471	0	38512	
1472	0	38512	
1473	0	38512	
1474	0	38512	
1475	0	38528	
1476	0	38536	
1477	0	38536	
1478	0	38528	
1479	0	38528	
1480	0	38536	
1481	0	38536	
1482	0	38552	
1483	0	38560	
1484	0	38552	
1485	0	38560	
1486	0	38560	
1487	0	38568	
1488	0	38568	
1489	0	38584	
1490	0	38568	
1491	0	38576	
1492	0	38576	
1493	0	38584	
1494	0	38576	
1495	0	38592	
1496	0	38592	
1497	0	38592	
1498	0	38600	
1499	0	38592	
1500	0	38600	
1501	0	38608	
1502	0	38592	
1503	0	38600	
1504	0	38608	
1505	0	38608	
1506	0	38616	
1507	0	38600	
1508	0	38616	
1509	0	38616	
1510	0	38616	
1511	0	38608	
1512	0	38608	
1513	0	38608	
1514	0	38608	
1515	0	38608	
1516	0	38608	
1517	0	38608	
1518	0	38600	
1519	0	38608	
1520	0	38608	
1521	0	38608	
1522	0	38600	
1523	0	38600	
1524	0	38600	
1525	0	38592	
1526	0	38592	
1527	0	38600	
1528	0	38600	
1529	0	38592	
1530	0	38592	
1531	0	38584	
1532	0	38576	
1533	0	38592	
1534	0	38584	
1535	0	38584	
1536	0	38592	
1537	0	38584	
1538	0	38568	
1539	0	38572	
1540	0	38568	
1541	0	38560	
1542	0	38584	
1543	0	38560	
1544	0	38560	
1545	0	38560	
1546	0	38560	
1547	0	38560	
1548	0	38552	
1549	0	38560	
1550	0	38544	
1551	0	38552	
1552	0	38552	
1553	0	38552	
1554	0	38544	
1555	0	38544	
1556	0	38536	
1557	0	38536	
1558	0	38544	
1559	0	38536	
1560	0	38528	
1561	0	38528	
1562	0	38536	
1563	0	38536	
1564	0	38528	
1565	0	38536	
1566	0	38520	
1567	0	38528	
1568	0	38528	
1569	0	38528	
1570	0	38520	
1571	0	38520	
1572	0	38528	
1573	0	38536	
1574	0	38520	
1575	0	38520	
1576	0	38520	
1577	0	38512	
1578	0	38520	
1579	0	38520	
1580	0	38512	
1581	0	38512	
1582	0	38512	
1583	0	38504	
1584	0	38496	
1585	0	38504	
1586	0	38496	
1587	0	38496	
1588	0	38504	
1589	0	38504	
1590	0	38488	
1591	0	38488	
1592	0	38488	
1593	0	38504	
1594	0	38488	
1595	0	38480	
1596	0	38488	
1597	0	38488	
1598	0	38480	
1599	0	38480	
1600	0	38488	
1601	0	38480	
1602	0	38488	
1603	0	38480	
1604	0	38480	
1605	0	38480	
1606	0	38464	
1607	0	38472	
1608	0	38472	
1609	0	38464	
1610	0	38472	
1611	0	38464	
1612	0	38472	
1613	0	38472	
1614	0	38464	
1615	0	38464	
1616	0	38472	
1617	0	38464	
1618	0	38480	
1619	0	38472	
1620	0	38464	
1621	0	38464	
1622	0	38472	
1623	0	38472	
1624	0	38464	
1625	0	38464	
1626	0	38464	
1627	0	38464	
1628	0	38472	
1629	0	38472	
1630	0	38480	
1631	0	38480	
1632	0	38472	
1633	0	38472	
1634	0	38472	
1635	0	38472	
1636	0	38480	
1637	0	38472	
1638	0	38480	
1639	0	38480	
1640	0	38480	
1641	0	38488	
1642	0	38488	
1643	0	38480	
1644	0	38488	
1645	0	38504	
1646	0	38496	
1647	0	38496	
1648	0	38504	
1649	0	38496	
1650	0	38504	
1651	0	38504	
1652	0	38504	
1653	0	38520	
1654	0	38504	
1655	0	38512	
1656	0	38504	
1657	0	38520	
1658	0	38520	
1659	0	38520	
1660	0	38520	
1661	0	38504	
1662	0	38520	
1663	0	38528	
1664	0	38528	
1665	0	38528	
1666	0	38528	
1667	0	38528	
1668	0	38536	
1669	0	38536	
1670	0	38544	
1671	0	38544	
1672	0	38552	
1673	0	38536	
1674	0	38552	
1675	0	38552	
1676	0	38552	
1677	0	38552	
1678	0	38552	
1679	0	38552	
1680	0	38560	
1681	0	38544	
1682	0	38552	
1683	0	38560	
1684	0	38552	
1685	0	38544	
1686	0	38560	
1687	0	38560	
1688	0	38560	
1689	0	38568	
1690	0	38560	
1691	0	38552	
1692	0	38544	
1693	0	38552	
1694	0	38560	
1695	0	38560	
1696	0	38560	
1697	0	38560	
1698	0	38552	
1699	0	38552	
1700	0	38544	
1701	0	38552	
1702	0	38552	
1703	0	38552	
1704	0	38552	
1705	0	38552	
1706	0	38544	
1707	0	38552	
1708	0	38552	
1709	0	38544	
1710	0	38544	
1711	0	38544	
1712	0	38528	
1713	0	38544	
1714	0	38544	
1715	0	38540	
1716	0	38536	
1717	0	38544	
1718	0	38544	
1719	0	38536	
1720	0	38528	
1721	0	38536	
1722	0	38544	
1723	0	38536	
1724	0	38528	
1725	0	38536	
1726	0	38528	
1727	0	38520	
1728	0	38520	
1729	0	38520	
1730	0	38520	
1731	0	38524	
1732	0	38528	
1733	0	38520	
1734	0	38520	
1735	0	38520	
1736	0	38520	
1737	0	38520	
1738	0	38520	
1739	0	38520	
1740	0	38520	
1741	0	38520	
1742	0	38512	
1743	0	38512	
1744	0	38520	
1745	0	38520	
1746	0	38512	
1747	0	38524	
1748	0	38512	
1749	0	38504	
1750	0	38512	
1751	0	38504	
1752	0	38512	
1753	0	38512	
1754	0	38496	
1755	0	38504	
1756	0	38504	
1757	0	38496	
1758	0	38496	
1759	0	38496	
1760	0	38496	
1761	0	38488	
1762	0	38504	
1763	0	38488	
1764	0	38488	
1765	0	38488	
1766	0	38488	
1767	0	38480	
1768	0	38488	
1769	0	38472	
1770	0	38480	
1771	0	38472	
1772	0	38480	
1773	0	38472	
1774	0	38464	
1775	0	38472	
1776	0	38464	
1777	0	38472	
1778	0	38464	
1779	0	38456	
1780	0	38440	
1781	0	38456	
1782	0	38456	
1783	0	38456	
1784	0	38440	
1785	0	38440	
1786	0	38440	
1787	0	38440	
1788	0	38432	
1789	0	38432	
1790	0	38432	
1791	0	38432	
1792	0	38424	
1793	0	38424	
1794	0	38424	
1795	0	38424	
1796	0	38408	
1797	0	38408	
1798	0	38408	
1799	0	38400	
1800	0	38408	
1801	0	38400	
1802	0	38392	
1803	0	38400	
1804	0	38384	
1805	0	38392	
1806	0	38392	
1807	0	38392	
1808	0	38376	
1809	0	38368	
1810	0	38376	
1811	0	38368	
1812	0	38368	
1813	0	38376	
1814	0	38368	
1815	0	38368	
1816	0	38372	
1817	0	38368	
1818	0	38360	
1819	0	38360	
1820	0	38368	
1821	0	38352	
1822	0	38352	
1823	0	38336	
1824	0	38344	
1825	0	38344	
1826	0	38344	
1827	0	38336	
1828	0	38328	
1829	0	38336	
1830	0	38328	
1831	0	38320	
1832	0	38328	
1833	0	38328	
1834	0	38320	
1835	0	38328	
1836	0	38312	
1837	0	38304	
1838	0	38312	
1839	0	38296	
1840	0	38304	
1841	0	38296	
1842	0	38296	
1843	0	38296	
1844	0	38288	
1845	0	38288	
1846	0	38288	
1847	0	38280	
1848	0	38280	
1849	0	38280	
1850	0	38264	
1851	0	38264	
1852	0	38264	
1853	0	38272	
1854	0	38248	
1855	0	38248	
1856	0	38256	
1857	0	38248	
1858	0	38248	
1859	0	38248	
1860	0	38248	
1861	0	38248	
1862	0	38240	
1863	0	38240	
1864	0	38224	
1865	0	38240	
1866	0	38224	
1867	0	38232	
1868	0	38224	
1869	0	38208	
1870	0	38216	
1871	0	38208	
1872	0	38208	
1873	0	38208	
1874	0	38200	
1875	0	38200	
1876	0	38192	
1877	0	38200	
1878	0	38192	
1879	0	38176	
1880	0	38176	
1881	0	38176	
1882	0	38176	
1883	0	38160	
1884	0	38160	
1885	0	38152	
1886	0	38152	
1887	0	38160	
1888	0	38152	
1889	0	38144	
1890	0	38144	
1891	0	38152	
1892	0	38136	
1893	0	38128	
1894	0	38136	
1895	0	38128	
1896	0	38120	
1897	0	38120	
1898	0	38120	
1899	0	38120	
1900	0	38112	
1901	0	38096	
1902	0	38096	
1903	0	38088	
1904	0	38096	
1905	0	38088	
1906	0	38088	
1907	0	38080	
1908	0	38080	
1909	0	38080	
1910	0	38064	
1911	0	38072	
1912	0	38056	
1913	0	38056	
1914	0	38056	
1915	0	38056	
1916	0	38032	
1917	0	38040	
1918	0	38032	
1919	0	38032	
1920	0	38024	
1921	0	38024	
1922	0	38024	
1923	0	38016	
1924	0	38008	
1925	0	38000	
1926	0	38008	
1927	0	37996	
1928	0	37984	
1929	0	37976	
1930	0	37984	
1931	0	37984	
1932	0	37952	
1933	0	37960	
1934	0	37976	
1935	0	37944	
1936	0	37952	
1937	0	37944	
1938	0	37936	
1939	0	37932	
1940	0	37936	
1941	0	37920	
1942	0	37920	
1943	0	37912	
1944	0	37904	
1945	0	37904	
1946	0	37896	
1947	0	37880	
1948	0	37864	
1949	0	37872	
1950	0	37856	
1951	0	37856	
1952	0	37840	
1953	0	37848	
1954	0	37832	
1955	0	37824	
1956	0	37832	
1957	0	37824	
1958	0	37816	
1959	0	37804	
1960	0	37800	
1961	0	37792	
1962	0	37792	
1963	0	37784	
1964	0	37768	
1965	0	37760	
1966	0	37752	
1967	0	37760	
1968	0	37740	
1969	0	37736	
1970	0	37728	
1971	0	37720	
1972	0	37720	
1973	0	37712	
1974	0	37720	
1975	0	37696	
1976	0	37712	
1977	0	37696	
1978	0	37696	
1979	0	37680	
1980	0	37672	
1981	0	37672	
1982	0	37672	
1983	0	37656	
1984	0	37656	
1985	0	37648	
1986	0	37640	
1987	0	37640	
1988	0	37640	
1989	0	37624	
1990	0	37616	
1991	0	37616	
1992	0	37616	
1993	0	37608	
1994	0	37600	
1995	0	37608	
1996	0	37592	
1997	0	37600	
1998	0	37584	
1999	0	37576	
2000	0	37576	
2001	0	37584	
2002	0	37568	
2003	0	37568	
2004	0	37560	
2005	0	37544	
2006	0	37552	
2007	0	37548	
2008	0	37528	
2009	0	37528	
2010	0	37528	
2011	0	37528	
2012	0	37520	
2013	0	37512	
2014	0	37528	
2015	0	37520	
2016	0	37504	
2017	0	37496	
2018	0	37504	
2019	0	37488	
2020	0	37500	
2021	0	37488	
2022	0	37480	
2023	0	37472	
2024	0	37472	
2025	0	37464	
2026	0	37472	
2027	0	37456	
2028	0	37448	
2029	0	37456	
2030	0	37448	
2031	0	37452	
2032	0	37440	
2033	0	37440	
2034	0	37424	
2035	0	37440	
2036	0	37424	
2037	0	37416	
2038	0	37408	
2039	0	37408	
2040	0	37392	
2041	0	37392	
2042	0	37392	
2043	0	37400	
2044	0	37376	
2045	0	37376	
2046	0	37360	
2047	0	37360	
2048	0	37360	
2049	0	37352	
2050	0	37344	
2051	0	37336	
2052	0	37328	
2053	0	37320	
2054	0	37312	
2055	0	37312	
2056	0	37312	
2057	0	37296	
2058	0	37296	
2059	0	37280	
2060	0	37280	
2061	0	37280	
2062	0	37272	
2063	0	37264	
2064	0	37256	
2065	0	37260	
2066	0	37240	
2067	0	37232	
2068	0	37224	
2069	0	37224	
2070	0	37216	
2071	0	37208	
2072	0	37208	
2073	0	37208	
2074	0	37184	
2075	0	37184	
2076	0	37184	
2077	0	37168	
2078	0	37176	
2079	0	37152	
2080	0	37144	
2081	0	37144	
2082	0	37136	
2083	0	37128	
2084	0	37112	
2085	0	37120	
2086	0	37112	
2087	0	37088	
2088	0	37088	
2089	0	37080	
2090	0	37064	
2091	0	37056	
2092	0	37056	
2093	0	37040	
2094	0	37024	
2095	0	37016	
2096	0	37016	
2097	0	37000	
2098	0	36984	
2099	0	36976	
2100	0	36968	
2101	0	36960	
2102	0	36960	
2103	0	36952	
2104	0	36936	
2105	0	36920	
2106	0	36904	
2107	0	36896	
2108	0	36896	
2109	0	36880	
2110	0	36872	
2111	0	36864	
2112	0	36856	
2113	0	36856	
2114	0	36832	
2115	0	36832	
2116	0	36824	
2117	0	36816	
2118	0	36808	
2119	0	36800	
2120	0	36800	
2121	0	36792	
2122	0	36792	
2123	0	36792	
2124	0	36792	
2125	0	36784	
2126	0	36776	
2127	0	36768	
2128	0	36776	
2129	0	36768	
2130	0	36776	
2131	0	36768	
2132	0	36760	
2133	0	36760	
2134	0	36760	
2135	0	36760	
2136	0	36752	
2137	0	36760	
2138	0	36760	
2139	0	36744	
2140	0	36752	
2141	0	36760	
2142	0	36736	
2143	0	36752	
2144	0	36744	
2145	0	36752	
2146	0	36728	
2147	0	36744	
2148	0	36732	
2149	0	36728	
2150	0	36728	
2151	0	36728	
2152	0	36720	
2153	0	36712	
2154	0	36712	
2155	0	36720	
2156	0	36712	
2157	0	36704	
2158	0	36712	
2159	0	36704	
2160	0	36696	
2161	0	36688	
2162	0	36688	
2163	0	36688	
2164	0	36680	
2165	0	36680	
2166	0	36680	
2167	0	36672	
2168	0	36664	
2169	0	36672	
2170	0	36664	
2171	0	36656	
2172	0	36648	
2173	0	36640	
2174	0	36648	
2175	0	36632	
2176	0	36640	
2177	0	36624	
2178	0	36632	
2179	0	36632	
2180	0	36608	
2181	0	36608	
2182	0	36616	
2183	0	36608	
2184	0	36608	
2185	0	36600	
2186	0	36592	
2187	0	36592	
2188	0	36584	
2189	0	36584	
2190	0	36568	
2191	0	36568	
2192	0	36568	
2193	0	36560	
2194	0	36544	
2195	0	36544	
2196	0	36552	
2197	0	36544	
2198	0	36536	
2199	0	36528	
2200	0	36524	
2201	0	36520	
2202	0	36520	
2203	0	36512	
2204	0	36512	
2205	0	36504	
2206	0	36496	
2207	0	36504	
2208	0	36488	
2209	0	36484	
2210	0	36480	
2211	0	36480	
2212	0	36472	
2213	0	36472	
2214	0	36464	
2215	0	36464	
2216	0	36456	
2217	0	36456	
2218	0	36448	
2219	0	36448	
2220	0	36440	
2221	0	36440	
2222	0	36440	
2223	0	36432	
2224	0	36416	
2225	0	36440	
2226	0	36432	
2227	0	36424	
2228	0	36424	
2229	0	36416	
2230	0	36416	
2231	0	36408	
2232	0	36408	
2233	0	36400	
2234	0	36400	
2235	0	36400	
2236	0	36384	
2237	0	36392	
2238	0	36392	
2239	0	36384	
2240	0	36376	
2241	0	36376	
2242	0	36376	
2243	0	36368	
2244	0	36360	
2245	0	36352	
2246	0	36368	
2247	0	36352	
2248	0	36360	
2249	0	36360	
2250	0	36352	
2251	0	36352	
2252	0	36352	
2253	0	36332	
2254	0	36344	
2255	0	36336	
2256	0	36344	
2257	0	36336	
2258	0	36332	
2259	0	36320	
2260	0	36328	
2261	0	36320	
2262	0	36312	
2263	0	36320	
2264	0	36304	
2265	0	36312	
2266	0	36304	
2267	0	36296	
2268	0	36296	
2269	0	36288	
2270	0	36288	
2271	0	36288	
2272	0	36288	
2273	0	36272	
2274	0	36288	
2275	0	36264	
2276	0	36272	
2277	0	36272	
2278	0	36264	
2279	0	36256	
2280	0	36256	
2281	0	36248	
2282	0	36240	
2283	0	36240	
2284	0	36240	
2285	0	36240	
2286	0	36232	
2287	0	36232	
2288	0	36220	
2289	0	36216	
2290	0	36216	
2291	0	36192	
2292	0	36200	
2293	0	36200	
2294	0	36200	
2295	0	36184	
2296	0	36184	
2297	0	36176	
2298	0	36168	
2299	0	36176	
2300	0	36168	
2301	0	36160	
2302	0	36144	
2303	0	36160	
2304	0	36152	
2305	0	36136	
2306	0	36136	
2307	0	36128	
2308	0	36136	
2309	0	36112	
2310	0	36116	
2311	0	36120	
2312	0	36112	
2313	0	36108	
2314	0	36104	
2315	0	36104	
2316	0	36104	
2317	0	36096	
2318	0	36080	
2319	0	36080	
2320	0	36080	
2321	0	36080	
2322	0	36076	
2323	0	36072	
2324	0	36064	
2325	0	36064	
2326	0	36048	
2327	0	36056	
2328	0	36056	
2329	0	36040	
2330	0	36040	
2331	0	36040	
2332	0	36032	
2333	0	36032	
2334	0	36016	
2335	0	36008	
2336	0	36016	
2337	0	36016	
2338	0	36000	
2339	0	35992	
2340	0	35992	
2341	0	35976	
2342	0	35968	
2343	0	35952	
2344	0	35952	
2345	0	35952	
2346	0	35944	
2347	0	35936	
2348	0	35912	
2349	0	35920	
2350	0	35912	
2351	0	35904	
2352	0	35896	
2353	0	35888	
2354	0	35880	
2355	0	35856	
2356	0	35872	
2357	0	35848	
2358	0	35840	
2359	0	35840	
2360	0	35816	
2361	0	35824	
2362	0	35804	
2363	0	35800	
2364	0	35784	
2365	0	35776	
2366	0	35768	
2367	0	35768	
2368	0	35744	
2369	0	35752	
2370	0	35728	
2371	0	35728	
2372	0	35720	
2373	0	35720	
2374	0	35704	
2375	0	35696	
2376	0	35688	
2377	0	35680	
2378	0	35680	
2379	0	35664	
2380	0	35664	
2381	0	35648	
2382	0	35648	
2383	0	35624	
2384	0	35616	
2385	0	35624	
2386	0	35616	
2387	0	35608	
2388	0	35584	
2389	0	35592	
2390	0	35592	
2391	0	35576	
2392	0	35552	
2393	0	35560	
2394	0	35560	
2395	0	35552	
2396	0	35552	
2397	0	35536	
2398	0	35536	
2399	0	35528	
2400	0	35520	
2401	0	35520	
2402	0	35504	
2403	0	35512	
2404	0	35512	
2405	0	35496	
2406	0	35496	
2407	0	35488	
2408	0	35480	
2409	0	35488	
2410	0	35468	
2411	0	35464	
2412	0	35456	
2413	0	35448	
2414	0	35452	
2415	0	35448	
2416	0	35440	
2417	0	35432	
2418	0	35432	
2419	0	35440	
2420	0	35424	
2421	0	35424	
2422	0	35416	
2423	0	35404	
2424	0	35400	
2425	0	35400	
2426	0	35392	
2427	0	35392	
2428	0	35384	
2429	0	35384	
2430	0	35376	
2431	0	35368	
2432	0	35376	
2433	0	35368	
2434	0	35360	
2435	0	35368	
2436	0	35344	
2437	0	35344	
2438	0	35336	
2439	0	35336	
2440	0	35320	
2441	0	35312	
2442	0	35320	
2443	0	35308	
2444	0	35304	
2445	0	35296	
2446	0	35304	
2447	0	35288	
2448	0	35288	
2449	0	35272	
2450	0	35280	
2451	0	35264	
2452	0	35264	
2453	0	35264	
2454	0	35256	
2455	0	35248	
2456	0	35248	
2457	0	35240	
2458	0	35240	
2459	0	35232	
2460	0	35232	
2461	0	35224	
2462	0	35208	
2463	0	35208	
2464	0	35212	
2465	0	35200	
2466	0	35200	
2467	0	35188	
2468	0	35184	
2469	0	35176	
2470	0	35176	
2471	0	35160	
2472	0	35168	
2473	0	35160	
2474	0	35160	
2475	0	35152	
2476	0	35152	
2477	0	35144	
2478	0	35136	
2479	0	35136	
2480	0	35128	
2481	0	35136	
2482	0	35104	
2483	0	35112	
2484	0	35104	
2485	0	35104	
2486	0	35096	
2487	0	35096	
2488	0	35080	
2489	0	35072	
2490	0	35080	
2491	0	35064	
2492	0	35052	
2493	0	35056	
2494	0	35040	
2495	0	35040	
2496	0	35040	
2497	0	35016	
2498	0	35024	
2499	0	35016	
2500	0	35016	
2501	0	35000	
2502	0	35000	
2503	0	35000	
2504	0	34984	
2505	0	34992	
2506	0	34968	
2507	0	34968	
2508	0	34952	
2509	0	34944	
2510	0	34960	
2511	0	34936	
2512	0	34936	
2513	0	34936	
2514	0	34928	
2515	0	34912	
2516	0	34904	
2517	0	34904	
2518	0	34896	
2519	0	34888	
2520	0	34880	
2521	0	34880	
2522	0	34864	
2523	0	34872	
2524	0	34848	
2525	0	34848	
2526	0	34840	
2527	0	34832	
2528	0	34824	
2529	0	34816	
2530	0	34816	
2531	0	34808	
2532	0	34800	
2533	0	34792	
2534	0	34792	
2535	0	34784	
2536	0	34784	
2537	0	34768	
2538	0	34752	
2539	0	34752	
2540	0	34744	
2541	0	34736	
2542	0	34728	
2543	0	34736	
2544	0	34712	
2545	0	34712	
2546	0	34704	
2547	0	34696	
2548	0	34684	
2549	0	34684	
2550	0	34672	
2551	0	34672	
2552	0	34656	
2553	0	34656	
2554	0	34644	
2555	0	34632	
2556	0	34632	
2557	0	34624	
2558	0	34624	
2559	0	34608	
2560	0	34600	
2561	0	34600	
2562	0	34592	
2563	0	34576	
2564	0	34576	
2565	0	34560	
2566	0	34560	
2567	0	34552	
2568	0	34544	
2569	0	34536	
2570	0	34536	
2571	0	34520	
2572	0	34520	
2573	0	34512	
2574	0	34504	
2575	0	34496	
2576	0	34496	
2577	0	34488	
2578	0	34472	
2579	0	34472	
2580	0	34464	
2581	0	34448	
2582	0	34440	
2583	0	34448	
2584	0	34432	
2585	0	34424	
2586	0	34416	
2587	0	34408	
2588	0	34408	
2589	0	34408	
2590	0	34400	
2591	0	34392	
2592	0	34376	
2593	0	34368	
2594	0	34368	
2595	0	34360	
2596	0	34352	
2597	0	34336	
2598	0	34336	
2599	0	34328	
2600	0	34328	
2601	0	34320	
2602	0	34304	
2603	0	34288	
2604	0	34288	
2605	0	34288	
2606	0	34280	
2607	0	34280	
2608	0	34264	
2609	0	34256	
2610	0	34256	
2611	0	34240	
2612	0	34232	
2613	0	34232	
2614	0	34216	
2615	0	34216	
2616	0	34200	
2617	0	34216	
2618	0	34192	
2619	0	34184	
2620	0	34176	
2621	0	34168	
2622	0	34168	
2623	0	34160	
2624	0	34152	
2625	0	34136	
2626	0	34128	
2627	0	34120	
2628	0	34120	
2629	0	34112	
2630	0	34096	
2631	0	34088	
2632	0	34088	
2633	0	34080	
2634	0	34072	
2635	0	34056	
2636	0	34056	
2637	0	34048	
2638	0	34056	
2639	0	34024	
2640	0	34024	
2641	0	34008	
2642	0	34012	
2643	0	34008	
2644	0	34000	
2645	0	33984	
2646	0	33992	
2647	0	33980	
2648	0	33968	
2649	0	33960	
2650	0	33936	
2651	0	33952	
2652	0	33936	
2653	0	33920	
2654	0	33920	
2655	0	33928	
2656	0	33912	
2657	0	33896	
2658	0	33888	
2659	0	33904	
2660	0	33896	
2661	0	33872	
2662	0	33872	
2663	0	33864	
2664	0	33856	
2665	0	33840	
2666	0	33832	
2667	0	33840	
2668	0	33820	
2669	0	33816	
2670	0	33808	
2671	0	33804	
2672	0	33784	
2673	0	33784	
2674	0	33784	
2675	0	33776	
2676	0	33768	
2677	0	33752	
2678	0	33748	
2679	0	33744	
2680	0	33728	
2681	0	33728	
2682	0	33728	
2683	0	33720	
2684	0	33704	
2685	0	33704	
2686	0	33696	
2687	0	33688	
2688	0	33688	
2689	0	33680	
2690	0	33680	
2691	0	33664	
2692	0	33648	
2693	0	33640	
2694	0	33640	
2695	0	33632	
2696	0	33640	
2697	0	33620	
2698	0	33616	
2699	0	33608	
2700	0	33616	
2701	0	33600	
2702	0	33592	
2703	0	33592	
2704	0	33568	
2705	0	33568	
2706	0	33568	
2707	0	33560	
2708	0	33560	
2709	0	33536	
2710	0	33536	
2711	0	33536	
2712	0	33520	
2713	0	33520	
2714	0	33520	
2715	0	33512	
2716	0	33504	
2717	0	33496	
2718	0	33492	
2719	0	33480	
2720	0	33472	
2721	0	33472	
2722	0	33464	
2723	0	33456	
2724	0	33448	
2725	0	33448	
2726	0	33440	
2727	0	33432	
2728	0	33432	
2729	0	33424	
2730	0	33416	
2731	0	33408	
2732	0	33400	
2733	0	33392	
2734	0	33400	
2735	0	33384	
2736	0	33376	
2737	0	33368	
2738	0	33360	
2739	0	33360	
2740	0	33360	
2741	0	33352	
2742	0	33344	
2743	0	33336	
2744	0	33328	
2745	0	33328	
2746	0	33312	
2747	0	33312	
2748	0	33304	
2749	0	33296	
2750	0	33300	
2751	0	33288	
2752	0	33288	
2753	0	33280	
2754	0	33272	
2755	0	33264	
2756	0	33256	
2757	0	33248	
2758	0	33248	
2759	0	33244	
2760	0	33240	
2761	0	33240	
2762	0	33232	
2763	0	33232	
2764	0	33216	
2765	0	33208	
2766	0	33216	
2767	0	33192	
2768	0	33192	
2769	0	33184	
2770	0	33188	
2771	0	33184	
2772	0	33176	
2773	0	33164	
2774	0	33168	
2775	0	33152	
2776	0	33144	
2777	0	33144	
2778	0	33144	
2779	0	33136	
2780	0	33140	
2781	0	33128	
2782	0	33120	
2783	0	33112	
2784	0	33104	
2785	0	33112	
2786	0	33096	
2787	0	33096	
2788	0	33088	
2789	0	33080	
2790	0	33072	
2791	0	33064	
2792	0	33064	
2793	0	33052	
2794	0	33056	
2795	0	33048	
2796	0	33048	
2797	0	33040	
2798	0	33032	
2799	0	33024	
2800	0	33016	
2801	0	33016	
2802	0	33008	
2803	0	33000	
2804	0	32992	
2805	0	33008	
2806	0	32992	
2807	0	32984	
2808	0	32976	
2809	0	32984	
2810	0	32964	
2811	0	32960	
2812	0	32952	
2813	0	32960	
2814	0	32952	
2815	0	32936	
2816	0	32928	
2817	0	32920	
2818	0	32912	
2819	0	32916	
2820	0	32904	
2821	0	32888	
2822	0	32876	
2823	0	32888	
2824	0	32864	
2825	0	32856	
2826	0	32856	
2827	0	32840	
2828	0	32848	
2829	0	32824	
2830	0	32816	
2831	0	32816	
2832	0	32792	
2833	0	32784	
2834	0	32776	
2835	0	32760	
2836	0	32752	
2837	0	32744	
2838	0	32728	
2839	0	32720	
2840	0	32712	
2841	0	32704	
2842	0	32688	
2843	0	32688	
2844	0	32668	
2845	0	32664	
2846	0	32648	
2847	0	32652	
2848	0	32648	
2849	0	32632	
2850	0	32616	
2851	0	32616	
2852	0	32616	
2853	0	32608	
2854	0	32592	
2855	0	32592	
2856	0	32584	
2857	0	32576	
2858	0	32576	
2859	0	32576	
2860	0	32576	
2861	0	32560	
2862	0	32560	
2863	0	32560	
2864	0	32560	
2865	0	32552	
2866	0	32560	
2867	0	32552	
2868	0	32548	
2869	0	32552	
2870	0	32544	
2871	0	32536	
2872	0	32544	
2873	0	32544	
2874	0	32536	
2875	0	32540	
2876	0	32544	
2877	0	32536	
2878	0	32528	
2879	0	32536	
2880	0	32536	
2881	0	32520	
2882	0	32536	
2883	0	32528	
2884	0	32536	
2885	0	32536	
2886	0	32528	
2887	0	32520	
2888	0	32528	
2889	0	32528	
2890	0	32528	
2891	0	32520	
2892	0	32516	
2893	0	32512	
2894	0	32512	
2895	0	32520	
2896	0	32504	
2897	0	32520	
2898	0	32516	
2899	0	32512	
2900	0	32504	
2901	0	32512	
2902	0	32512	
2903	0	32512	
2904	0	32512	
2905	0	32504	
2906	0	32512	
2907	0	32504	
2908	0	32504	
2909	0	32512	
2910	0	32512	
2911	0	32512	
2912	0	32504	
2913	0	32504	
2914	0	32504	
2915	0	32512	
2916	0	32496	
2917	0	32516	
2918	0	32512	
2919	0	32512	
2920	0	32512	
2921	0	32512	
2922	0	32512	
2923	0	32504	
2924	0	32512	
2925	0	32512	
2926	0	32512	
2927	0	32512	
2928	0	32520	
2929	0	32520	
2930	0	32520	
2931	0	32536	
2932	0	32536	
2933	0	32544	
2934	0	32536	
2935	0	32540	
2936	0	32544	
2937	0	32536	
2938	0	32544	
2939	0	32544	
2940	0	32544	
2941	0	32560	
2942	0	32552	
2943	0	32552	
2944	0	32552	
2945	0	32552	
2946	0	32560	
2947	0	32568	
2948	0	32576	
2949	0	32576	
2950	0	32576	
2951	0	32584	
2952	0	32584	
2953	0	32576	
2954	0	32584	
2955	0	32592	
2956	0	32600	
2957	0	32608	
2958	0	32608	
2959	0	32608	
2960	0	32616	
2961	0	32616	
2962	0	32624	
2963	0	32624	
2964	0	32632	
2965	0	32632	
2966	0	32636	
2967	0	32640	
2968	0	32648	
2969	0	32652	
2970	0	32648	
2971	0	32656	
2972	0	32656	
2973	0	32664	
2974	0	32664	
2975	0	32664	
2976	0	32680	
2977	0	32680	
2978	0	32672	
2979	0	32680	
2980	0	32688	
2981	0	32680	
2982	0	32696	
2983	0	32704	
2984	0	32704	
2985	0	32712	
2986	0	32720	
2987	0	32712	
2988	0	32720	
2989	0	32712	
2990	0	32728	
2991	0	32728	
2992	0	32736	
2993	0	32744	
2994	0	32736	
2995	0	32744	
2996	0	32744	
2997	0	32748	
2998	0	32752	
2999	0	32764	
3000	0	32760	
3001	0	32768	
3002	0	32776	
3003	0	32784	
3004	0	32776	
3005	0	32792	
3006	0	32784	
3007	0	32800	
3008	0	32800	
3009	0	32800	
3010	0	32816	
3011	0	32808	
3012	0	32808	
3013	0	32824	
3014	0	32816	
3015	0	32824	
3016	0	32824	
3017	0	32828	
3018	0	32832	
3019	0	32832	
3020	0	32840	
3021	0	32840	
3022	0	32856	
3023	0	32848	
3024	0	32848	
3025	0	32856	
3026	0	32856	
3027	0	32872	
3028	0	32856	
3029	0	32864	
3030	0	32872	
3031	0	32864	
3032	0	32872	
3033	0	32864	
3034	0	32872	
3035	0	32880	
3036	0	32880	
3037	0	32880	
3038	0	32880	
3039	0	32888	
3040	0	32896	
3041	0	32892	
3042	0	32888	
3043	0	32888	
3044	0	32896	
3045	0	32888	
3046	0	32904	
3047	0	32904	
3048	0	32904	
3049	0	32904	
3050	0	32904	
3051	0	32904	
3052	0	32908	
3053	0	32912	
3054	0	32920	
3055	0	32920	
3056	0	32920	
3057	0	32928	
3058	0	32920	
3059	0	32944	
3060	0	32928	
3061	0	32944	
3062	0	32944	
3063	0	32944	
3064	0	32960	
3065	0	32952	
3066	0	32952	
3067	0	32960	
3068	0	32960	
3069	0	32960	
3070	0	32960	
3071	0	32968	
3072	0	32968	
3073	0	32968	
3074	0	32976	
3075	0	32972	
3076	0	32976	
3077	0	32992	
3078	0	32984	
3079	0	32976	
3080	0	32976	
3081	0	32992	
3082	0	32992	
3083	0	32984	
3084	0	32988	
3085	0	32992	
3086	0	33000	
3087	0	32984	
3088	0	33000	
3089	0	33000	
3090	0	33000	
3091	0	32992	
3092	0	32992	
3093	0	32992	
3094	0	33000	
3095	0	32992	
3096	0	33000	
3097	0	33000	
3098	0	33000	
3099	0	33000	
3100	0	33000	
3101	0	33000	
3102	0	33000	
3103	0	33000	
3104	0	33000	
3105	0	32992	
3106	0	33000	
3107	0	32992	
3108	0	32992	
3109	0	32996	
3110	0	32992	
3111	0	32992	
3112	0	33000	
3113	0	32992	
3114	0	33000	
3115	0	32984	
3116	0	32992	
3117	0	32992	
3118	0	32996	
3119	0	32992	
3120	0	33000	
3121	0	33000	
3122	0	32992	
3123	0	32992	
3124	0	32992	
3125	0	32984	
3126	0	32992	
3127	0	32992	
3128	0	32992	
3129	0	33000	
3130	0	32996	
3131	0	32992	
3132	0	32984	
3133	0	32992	
3134	0	32988	
3135	0	32984	
3136	0	32984	
3137	0	32984	
3138	0	32976	
3139	0	32992	
3140	0	32984	
3141	0	32992	
3142	0	32984	
3143	0	32984	
3144	0	32984	
3145	0	32988	
3146	0	32992	
3147	0	32984	
3148	0	32984	
3149	0	32992	
3150	0	32992	
3151	0	32984	
3152	0	32984	
3153	0	32984	
3154	0	32976	
3155	0	32984	
3156	0	32976	
3157	0	32984	
3158	0	32984	
3159	0	32984	
3160	0	32976	
3161	0	32976	
3162	0	32968	
3163	0	32968	
3164	0	32976	
3165	0	32960	
3166	0	32960	
3167	0	32968	
3168	0	32952	
3169	0	32960	
3170	0	32952	
3171	0	32944	
3172	0	32944	
3173	0	32952	
3174	0	32944	
3175	0	32936	
3176	0	32936	
3177	0	32920	
3178	0	32928	
3179	0	32920	
3180	0	32920	
3181	0	32912	
3182	0	32904	
3183	0	32896	
3184	0	32896	
3185	0	32880	
3186	0	32888	
3187	0	32872	
3188	0	32872	
3189	0	32856	
3190	0	32848	
3191	0	32840	
3192	0	32840	
3193	0	32832	
3194	0	32824	
3195	0	32808	
3196	0	32800	
3197	0	32784	
3198	0	32784	
3199	0	32764	
3200	0	32760	
3201	0	32748	
3202	0	32736	
3203	0	32720	
3204	0	32720	
3205	0	32704	
3206	0	32680	
3207	0	32672	
3208	0	32664	
3209	0	32656	
3210	0	32632	
3211	0	32624	
3212	0	32616	
3213	0	32592	
3214	0	32576	
3215	0	32572	
3216	0	32552	
3217	0	32528	
3218	0	32528	
3219	0	32496	
3220	0	32480	
3221	0	32472	
3222	0	32448	
3223	0	32432	
3224	0	32416	
3225	0	32392	
3226	0	32376	
3227	0	32360	
3228	0	32344	
3229	0	32320	
3230	0	32312	
3231	0	32280	
3232	0	32264	
3233	0	32240	
3234	0	32216	
3235	0	32192	
3236	0	32176	
3237	0	32168	
3238	0	32128	
3239	0	32120	
3240	0	32088	
3241	0	32072	
3242	0	32048	
3243	0	32024	
3244	0	32000	
3245	0	31968	
3246	0	31952	
3247	0	31920	
3248	0	31904	
3249	0	31872	
3250	0	31840	
3251	0	31820	
3252	0	31792	
3253	0	31784	
3254	0	31736	
3255	0	31704	
3256	0	31680	
3257	0	31656	
3258	0	31624	
3259	0	31600	
3260	0	31552	
3261	0	31536	
3262	0	31492	
3263	0	31480	
3264	0	31432	
3265	0	31400	
3266	0	31368	
3267	0	31328	
3268	0	31296	
3269	0	31264	
3270	0	31224	
3271	0	31192	
3272	0	31160	
3273	0	31112	
3274	0	31072	
3275	0	31032	
3276	0	31000	
3277	0	30948	
3278	0	30912	
3279	0	30880	
3280	0	30828	
3281	0	30792	
3282	0	30752	
3283	0	30688	
3284	0	30656	
3285	0	30616	
3286	0	30560	
3287	0	30528	
3288	0	30464	
3289	0	30416	
3290	0	30368	
3291	0	30320	
3292	0	30284	
3293	0	30232	
3294	0	30184	
3295	0	30128	
3296	0	30096	
3297	0	30024	
3298	0	29992	
3299	0	29928	
3300	0	29888	
3301	0	29840	
3302	0	29784	
3303	0	29740	
3304	0	29680	
3305	0	29632	
3306	0	29584	
3307	0	29544	
3308	0	29482	
3309	0	29440	
3310	0	29392	
3311	0	29336	
3312	0	29292	
3313	0	29240	
3314	0	29192	
3315	0	29136	
3316	0	29088	
3317	0	29036	
3318	0	28992	
3319	0	28936	
3320	0	28900	
3321	0	28832	
3322	0	28792	
3323	0	28736	
3324	0	28680	
3325	0	28628	
3326	0	28584	
3327	0	28536	
3328	0	28480	
3329	0	28424	
3330	0	28372	
3331	0	28336	
3332	0	28268	
3333	0	28224	
3334	0	28176	
3335	0	28120	
3336	0	28064	
3337	0	28016	
3338	0	27960	
3339	0	27912	
3340	0	27864	
3341	0	27808	
3342	0	27756	
3343	0	27712	
3344	0	27656	
3345	0	27600	
3346	0	27544	
3347	0	27496	
3348	0	27440	
3349	0	27392	
3350	0	27340	
3351	0	27296	
3352	0	27240	
3353	0	27192	
3354	0	27136	
3355	0	27088	
3356	0	27032	
3357	0	26980	
3358	0	26928	
3359	0	26880	
3360	0	26824	
3361	0	26772	
3362	0	26720	
3363	0	26672	
3364	0	26624	
3365	0	26572	
3366	0	26520	
3367	0	26480	
3368	0	26432	
3369	0	26380	
3370	0	26328	
3371	0	26276	
3372	0	26224	
3373	0	26184	
3374	0	26128	
3375	0	26080	
3376	0	26032	
3377	0	25976	
3378	0	25928	
3379	0	25880	
3380	0	25832	
3381	0	25792	
3382	0	25736	
3383	0	25688	
3384	0	25640	
3385	0	25600	
3386	0	25536	
3387	0	25496	
3388	0	25448	
3389	0	25400	
3390	0	25364	
3391	0	25312	
3392	0	25264	
3393	0	25208	
3394	0	25172	
3395	0	25128	
3396	0	25072	
3397	0	25040	
3398	0	24984	
3399	0	24932	
3400	0	24888	
3401	0	24848	
3402	0	24800	
3403	0	24752	
3404	0	24704	
3405	0	24648	
3406	0	24608	
3407	0	24568	
3408	0	24520	
3409	0	24472	
3410	0	24432	
3411	0	24376	
3412	0	24328	
3413	0	24288	
3414	0	24248	
3415	0	24200	
3416	0	24156	
3417	0	24104	
3418	0	24072	
3419	0	24016	
3420	0	23972	
3421	0	23936	
3422	0	23884	
3423	0	23848	
3424	0	23804	
3425	0	23752	
3426	0	23712	
3427	0	23668	
3428	0	23620	
3429	0	23576	
3430	0	23536	
3431	0	23504	
3432	0	23448	
3433	0	23408	
3434	0	23376	
3435	0	23328	
3436	0	23280	
3437	0	23248	
3438	0	23200	
3439	0	23164	
3440	0	23128	
3441	0	23084	
3442	0	23048	
3443	0	23004	
3444	0	22968	
3445	0	22920	
3446	0	22880	
3447	0	22848	
3448	0	22812	
3449	0	22760	
3450	0	22728	
3451	0	22688	
3452	0	22656	
3453	0	22608	
3454	0	22560	
3455	0	22536	
3456	0	22489	
3457	0	22460	
3458	0	22416	
3459	0	22380	
3460	0	22344	
3461	0	22312	
3462	0	22272	
3463	0	22232	
3464	0	22192	
3465	0	22160	
3466	0	22120	
3467	0	22084	
3468	0	22048	
3469	0	22008	
3470	0	21984	
3471	0	21940	
3472	0	21912	
3473	0	21872	
3474	0	21832	
3475	0	21792	
3476	0	21760	
3477	0	21724	
3478	0	21688	
3479	0	21656	
3480	0	21616	
3481	0	21584	
3482	0	21560	
3483	0	21516	
3484	0	21472	
3485	0	21456	
3486	0	21408	
3487	0	21376	
3488	0	21348	
3489	0	21316	
3490	0	21288	
3491	0	21248	
3492	0	21216	
3493	0	21196	
3494	0	21160	
3495	0	21128	
3496	0	21104	
3497	0	21068	
3498	0	21032	
3499	0	21008	
3500	0	20976	
3501	0	20940	
3502	0	20916	
3503	0	20884	
3504	0	20856	
3505	0	20828	
3506	0	20800	
3507	0	20776	
3508	0	20744	
3509	0	20720	
3510	0	20680	
3511	0	20660	
3512	0	20632	
3513	0	20608	
3514	0	20576	
3515	0	20556	
3516	0	20528	
3517	0	20508	
3518	0	20480	
3519	0	20448	
3520	0	20420	
3521	0	20394	
3522	0	20376	
3523	0	20344	
3524	0	20324	
3525	0	20296	
3526	0	20268	
3527	0	20248	
3528	0	20232	
3529	0	20200	
3530	0	20168	
3531	0	20152	
3532	0	20128	
3533	0	20106	
3534	0	20080	
3535	0	20056	
3536	0	20036	
3537	0	20016	
3538	0	19992	
3539	0	19972	
3540	0	19952	
3541	0	19932	
3542	0	19904	
3543	0	19880	
3544	0	19864	
3545	0	19852	
3546	0	19824	
3547	0	19812	
3548	0	19784	
3549	0	19776	
3550	0	19752	
3551	0	19728	
3552	0	19724	
3553	0	19696	
3554	0	19680	
3555	0	19664	
3556	0	19648	
3557	0	19640	
3558	0	19616	
3559	0	19604	
3560	0	19584	
3561	0	19584	
3562	0	19564	
3563	0	19544	
3564	0	19520	
3565	0	19520	
3566	0	19504	
3567	0	19488	
3568	0	19480	
3569	0	19460	
3570	0	19452	
3571	0	19440	
3572	0	19420	
3573	0	19408	
3574	0	19400	
3575	0	19376	
3576	0	19368	
3577	0	19360	
3578	0	19348	
3579	0	19328	
3580	0	19314	
3581	0	19304	
3582	0	19288	
3583	0	19272	
3584	0	19268	
3585	0	19250	
3586	0	19232	
3587	0	19224	
3588	0	19204	
3589	0	19184	
3590	0	19176	
3591	0	19152	
3592	0	19140	
3593	0	19136	
3594	0	19112	
3595	0	19088	
3596	0	19084	
3597	0	19068	
3598	0	19048	
3599	0	19032	
3600	0	19016	
3601	0	19008	
3602	0	18992	
3603	0	18976	
3604	0	18960	
3605	0	18945	
3606	0	18932	
3607	0	18920	
3608	0	18900	
3609	0	18896	
3610	0	18880	
3611	0	18864	
3612	0	18852	
3613	0	18840	
3614	0	18832	
3615	0	18808	
3616	0	18804	
3617	0	18788	
3618	0	18776	
3619	0	18764	
3620	0	18756	
3621	0	18744	
3622	0	18736	
3623	0	18728	
3624	0	18714	
3625	0	18704	
3626	0	18688	
3627	0	18688	
3628	0	18664	
3629	0	18660	
3630	0	18650	
3631	0	18640	
3632	0	18632	
3633	0	18620	
3634	0	18608	
3635	0	18608	
3636	0	18600	
3637	0	18572	
3638	0	18564	
3639	0	18560	
3640	0	18556	
3641	0	18536	
3642	0	18532	
3643	0	18520	
3644	0	18512	
3645	0	18500	
3646	0	18496	
3647	0	18484	
3648	0	18468	
3649	0	18456	
3650	0	18452	
3651	0	18440	
3652	0	18432	
3653	0	18418	
3654	0	18400	
3655	0	18410	
3656	0	18392	
3657	0	18392	
3658	0	18384	
3659	0	18372	
3660	0	18360	
3661	0	18352	
3662	0	18340	
3663	0	18332	
3664	0	18322	
3665	0	18314	
3666	0	18306	
3667	0	18298	
3668	0	18288	
3669	0	18280	
3670	0	18268	
3671	0	18256	
3672	0	18250	
3673	0	18248	
3674	0	18236	
3675	0	18226	
3676	0	18224	
3677	0	18212	
3678	0	18202	
3679	0	18192	
3680	0	18184	
3681	0	18168	
3682	0	18168	
3683	0	18160	
3684	0	18148	
3685	0	18136	
3686	0	18136	
3687	0	18124	
3688	0	18120	
3689	0	18106	
3690	0	18096	
3691	0	18088	
3692	0	18082	
3693	0	18068	
3694	0	18064	
3695	0	18048	
3696	0	18036	
3697	0	18024	
3698	0	18024	
3699	0	18016	
3700	0	18008	
3701	0	17996	
3702	0	17976	
3703	0	17976	
3704	0	17960	
3705	0	17944	
3706	0	17936	
3707	0	17922	
3708	0	17912	
3709	0	17904	
3710	0	17892	
3711	0	17884	
3712	0	17880	
3713	0	17860	
3714	0	17848	
3715	0	17840	
3716	0	17832	
3717	0	17820	
3718	0	17808	
3719	0	17800	
3720	0	17792	
3721	0	17778	
3722	0	17770	
3723	0	17756	
3724	0	17748	
3725	0	17732	
3726	0	17724	
3727	0	17706	
3728	0	17704	
3729	0	17692	
3730	0	17672	
3731	0	17664	
3732	0	17648	
3733	0	17640	
3734	0	17628	
3735	0	17616	
3736	0	17600	
3737	0	17600	
3738	0	17580	
3739	0	17572	
3740	0	17560	
3741	0	17544	
3742	0	17536	
3743	0	17520	
3744	0	17512	
3745	0	17488	
3746	0	17484	
3747	0	17472	
3748	0	17456	
3749	0	17448	
3750	0	17434	
3751	0	17420	
3752	0	17408	
3753	0	17400	
3754	0	17380	
3755	0	17366	
3756	0	17360	
3757	0	17344	
3758	0	17332	
3759	0	17320	
3760	0	17304	
3761	0	17284	
3762	0	17280	
3763	0	17272	
3764	0	17248	
3765	0	17244	
3766	0	17228	
3767	0	17220	
3768	0	17196	
3769	0	17180	
3770	0	17168	
3771	0	17160	
3772	0	17140	
3773	0	17116	
3774	0	17108	
3775	0	17096	
3776	0	17080	
3777	0	17052	
3778	0	17048	
3779	0	17032	
3780	0	17024	
3781	0	17010	
3782	0	16984	
3783	0	16978	
3784	0	16952	
3785	0	16944	
3786	0	16924	
3787	0	16908	
3788	0	16896	
3789	0	16880	
3790	0	16868	
3791	0	16848	
3792	0	16836	
3793	0	16826	
3794	0	16804	
3795	0	16796	
3796	0	16776	
3797	0	16756	
3798	0	16752	
3799	0	16736	
3800	0	16714	
3801	0	16700	
3802	0	16680	
3803	0	16672	
3804	0	16656	
3805	0	16644	
3806	0	16634	
3807	0	16616	
3808	0	16608	
3809	0	16584	
3810	0	16572	
3811	0	16561	
3812	0	16544	
3813	0	16532	
3814	0	16512	
3815	0	16504	
3816	0	16496	
3817	0	16476	
3818	0	16464	
3819	0	16448	
3820	0	16440	
3821	0	16424	
3822	0	16412	
3823	0	16400	
3824	0	16384	
3825	0	16380	
3826	0	16368	
3827	0	16352	
3828	0	16336	
3829	0	16328	
3830	0	16320	
3831	0	16300	
3832	0	16288	
3833	0	16284	
3834	0	16260	
3835	0	16248	
3836	0	16240	
3837	0	16232	
3838	0	16212	
3839	0	16210	
3840	0	16194	
3841	0	16176	
3842	0	16168	
3843	0	16152	
3844	0	16144	
3845	0	16130	
3846	0	16120	
3847	0	16104	
3848	0	16088	
3849	0	16076	
3850	0	16056	
3851	0	16044	
3852	0	16040	
3853	0	16028	
3854	0	16012	
3855	0	16000	
3856	0	15980	
3857	0	15972	
3858	0	15962	
3859	0	15952	
3860	0	15937	
3861	0	15920	
3862	0	15920	
3863	0	15896	
3864	0	15892	
3865	0	15880	
3866	0	15872	
3867	0	15864	
3868	0	15848	
3869	0	15836	
3870	0	15828	
3871	0	15812	
3872	0	15804	
3873	0	15800	
3874	0	15784	
3875	0	15776	
3876	0	15764	
3877	0	15752	
3878	0	15752	
3879	0	15740	
3880	0	15732	
3881	0	15724	
3882	0	15712	
3883	0	15704	
3884	0	15696	
3885	0	15680	
3886	0	15680	
3887	0	15664	
3888	0	15664	
3889	0	15652	
3890	0	15648	
3891	0	15636	
3892	0	15620	
3893	0	15616	
3894	0	15600	
3895	0	15600	
3896	0	15592	
3897	0	15586	
3898	0	15576	
3899	0	15564	
3900	0	15564	
3901	0	15560	
3902	0	15548	
3903	0	15552	
3904	0	15538	
3905	0	15532	
3906	0	15520	
3907	0	15512	
3908	0	15505	
3909	0	15496	
3910	0	15492	
3911	0	15480	
3912	0	15472	
3913	0	15468	
3914	0	15464	
3915	0	15460	
3916	0	15444	
3917	0	15452	
3918	0	15441	
3919	0	15428	
3920	0	15424	
3921	0	15416	
3922	0	15416	
3923	0	15408	
3924	0	15404	
3925	0	15392	
3926	0	15392	
3927	0	15380	
3928	0	15376	
3929	0	15372	
3930	0	15360	
3931	0	15360	
3932	0	15348	
3933	0	15336	
3934	0	15328	
3935	0	15322	
3936	0	15320	
3937	0	15320	
3938	0	15316	
3939	0	15306	
3940	0	15300	
3941	0	15300	
3942	0	15284	
3943	0	15280	
3944	0	15280	
3945	0	15264	
3946	0	15268	
3947	0	15248	
3948	0	15260	
3949	0	15244	
3950	0	15240	
3951	0	15240	
3952	0	15224	
3953	0	15224	
3954	0	15220	
3955	0	15212	
3956	0	15204	
3957	0	15200	
3958	0	15200	
3959	0	15200	
3960	0	15192	
3961	0	15186	
3962	0	15192	
3963	0	15180	
3964	0	15180	
3965	0	15162	
3966	0	15172	
3967	0	15160	
3968	0	15152	
3969	0	15156	
3970	0	15148	
3971	0	15144	
3972	0	15144	
3973	0	15144	
3974	0	15136	
3975	0	15140	
3976	0	15132	
3977	0	15132	
3978	0	15136	
3979	0	15128	
3980	0	15132	
3981	0	15128	
3982	0	15124	
3983	0	15128	
3984	0	15128	
3985	0	15128	
3986	0	15121	
3987	0	15124	
3988	0	15120	
3989	0	15124	
3990	0	15124	
3991	0	15120	
3992	0	15116	
3993	0	15116	
3994	0	15120	
3995	0	15124	
3996	0	15122	
3997	0	15132	
3998	0	15128	
3999	0	15136	
4000	0	15124	
4001	0	15132	
4002	0	15132	
4003	0	15132	
4004	0	15136	
4005	0	15136	
4006	0	15130	
4007	0	15136	
4008	0	15132	
4009	0	15136	
4010	0	15136	
4011	0	15144	
4012	0	15141	
4013	0	15144	
4014	0	15148	
4015	0	15148	
4016	0	15148	
4017	0	15152	
4018	0	15152	
4019	0	15148	
4020	0	15156	
4021	0	15152	
4022	0	15152	
4023	0	15156	
4024	0	15152	
4025	0	15164	
4026	0	15156	
4027	0	15156	
4028	0	15152	
4029	0	15172	
4030	0	15156	
4031	0	15168	
4032	0	15172	
4033	0	15176	
4034	0	15180	
4035	0	15180	
4036	0	15188	
4037	0	15188	
4038	0	15188	
4039	0	15184	
4040	0	15184	
4041	0	15192	
4042	0	15196	
4043	0	15200	
4044	0	15204	
4045	0	15200	
4046	0	15202	
4047	0	15208	
4048	0	15220	
4049	0	15216	
4050	0	15220	
4051	0	15224	
4052	0	15224	
4053	0	15228	
4054	0	15228	
4055	0	15232	
4056	0	15232	
4057	0	15232	
4058	0	15240	
4059	0	15236	
4060	0	15248	
4061	0	15248	
4062	0	15260	
4063	0	15252	
4064	0	15256	
4065	0	15264	
4066	0	15260	
4067	0	15264	
4068	0	15264	
4069	0	15268	
4070	0	15272	
4071	0	15272	
4072	0	15274	
4073	0	15280	
4074	0	15276	
4075	0	15272	
4076	0	15280	
4077	0	15276	
4078	0	15292	
4079	0	15284	
4080	0	15288	
4081	0	15296	
4082	0	15296	
4083	0	15296	
4084	0	15304	
4085	0	15308	
4086	0	15312	
4087	0	15312	
4088	0	15312	
4089	0	15314	
4090	0	15320	
4091	0	15316	
4092	0	15320	
4093	0	15316	
4094	0	15328	
4095	0	15328	
4096	0	15332	
4097	0	15340	
4098	0	15332	
4099	0	15340	
4100	0	15344	
4101	0	15346	
4102	0	15344	
4103	0	15356	
4104	0	15346	
4105	0	15360	
4106	0	15364	
4107	0	15368	
4108	0	15370	
4109	0	15372	
4110	0	15368	
4111	0	15376	
4112	0	15376	
4113	0	15380	
4114	0	15388	
4115	0	15392	
4116	0	15392	
4117	0	15392	
4118	0	15392	
4119	0	15400	
4120	0	15400	
4121	0	15400	
4122	0	15400	
4123	0	15416	
4124	0	15416	
4125	0	15410	
4126	0	15416	
4127	0	15416	
4128	0	15416	
4129	0	15424	
4130	0	15428	
4131	0	15428	
4132	0	15432	
4133	0	15436	
4134	0	15440	
4135	0	15432	
4136	0	15440	
4137	0	15448	
4138	0	15448	
4139	0	15456	
4140	0	15448	
4141	0	15444	
4142	0	15452	
4143	0	15456	
4144	0	15444	
4145	0	15456	
4146	0	15460	
4147	0	15464	
4148	0	15460	
4149	0	15468	
4150	0	15472	
4151	0	15472	
4152	0	15464	
4153	0	15472	
4154	0	15472	
4155	0	15480	
4156	0	15472	
4157	0	15480	
4158	0	15484	
4159	0	15480	
4160	0	15480	
4161	0	15476	
4162	0	15488	
4163	0	15488	
4164	0	15490	
4165	0	15488	
4166	0	15484	
4167	0	15488	
4168	0	15500	
4169	0	15504	
4170	0	15500	
4171	0	15504	
4172	0	15501	
4173	0	15504	
4174	0	15504	
4175	0	15512	
4176	0	15512	
4177	0	15508	
4178	0	15508	
4179	0	15505	
4180	0	15516	
4181	0	15516	
4182	0	15520	
4183	0	15524	
4184	0	15520	
4185	0	15520	
4186	0	15528	
4187	0	15528	
4188	0	15524	
4189	0	15530	
4190	0	15536	
4191	0	15536	
4192	0	15532	
4193	0	15536	
4194	0	15537	
4195	0	15536	
4196	0	15546	
4197	0	15536	
4198	0	15544	
4199	0	15560	
4200	0	15552	
4201	0	15556	
4202	0	15554	
4203	0	15560	
4204	0	15568	
4205	0	15564	
4206	0	15568	
4207	0	15568	
4208	0	15576	
4209	0	15580	
4210	0	15576	
4211	0	15584	
4212	0	15576	
4213	0	15596	
4214	0	15592	
4215	0	15592	
4216	0	15608	
4217	0	15604	
4218	0	15608	
4219	0	15608	
4220	0	15620	
4221	0	15608	
4222	0	15628	
4223	0	15628	
4224	0	15632	
4225	0	15632	
4226	0	15640	
4227	0	15640	
4228	0	15648	
4229	0	15642	
4230	0	15648	
4231	0	15656	
4232	0	15656	
4233	0	15668	
4234	0	15660	
4235	0	15668	
4236	0	15676	
4237	0	15680	
4238	0	15680	
4239	0	15684	
4240	0	15696	
4241	0	15696	
4242	0	15708	
4243	0	15712	
4244	0	15712	
4245	0	15712	
4246	0	15724	
4247	0	15732	
4248	0	15740	
4249	0	15744	
4250	0	15744	
4251	0	15744	
4252	0	15752	
4253	0	15744	
4254	0	15760	
4255	0	15768	
4256	0	15780	
4257	0	15776	
4258	0	15784	
4259	0	15782	
4260	0	15792	
4261	0	15800	
4262	0	15808	
4263	0	15808	
4264	0	15808	
4265	0	15824	
4266	0	15818	
4267	0	15832	
4268	0	15834	
4269	0	15840	
4270	0	15840	
4271	0	15840	
4272	0	15856	
4273	0	15864	
4274	0	15868	
4275	0	15880	
4276	0	15872	
4277	0	15880	
4278	0	15888	
4279	0	15892	
4280	0	15896	
4281	0	15905	
4282	0	15912	
4283	0	15920	
4284	0	15916	
4285	0	15936	
4286	0	15928	
4287	0	15936	
4288	0	15944	
4289	0	15952	
4290	0	15952	
4291	0	15960	
4292	0	15960	
4293	0	15970	
4294	0	15972	
4295	0	15988	
4296	0	15992	
4297	0	15992	
4298	0	16000	
4299	0	16008	
4300	0	16016	
4301	0	16024	
4302	0	16028	
4303	0	16032	
4304	0	16048	
4305	0	16050	
4306	0	16056	
4307	0	16056	
4308	0	16064	
4309	0	16072	
4310	0	16080	
4311	0	16088	
4312	0	16088	
4313	0	16096	
4314	0	16108	
4315	0	16112	
4316	0	16120	
4317	0	16128	
4318	0	16128	
4319	0	16144	
4320	0	16144	
4321	0	16148	
4322	0	16160	
4323	0	16164	
4324	0	16168	
4325	0	16170	
4326	0	16186	
4327	0	16192	
4328	0	16192	
4329	0	16204	
4330	0	16204	
4331	0	16216	
4332	0	16224	
4333	0	16224	
4334	0	16228	
4335	0	16232	
4336	0	16244	
4337	0	16242	
4338	0	16256	
4339	0	16256	
4340	0	16264	
4341	0	16274	
4342	0	16268	
4343	0	16272	
4344	0	16272	
4345	0	16292	
4346	0	16288	
4347	0	16296	
4348	0	16308	
4349	0	16304	
4350	0	16312	
4351	0	16312	
4352	0	16320	
4353	0	16312	
4354	0	16316	
4355	0	16320	
4356	0	16332	
4357	0	16344	
4358	0	16336	
4359	0	16336	
4360	0	16356	
4361	0	16352	
4362	0	16348	
4363	0	16352	
4364	0	16368	
4365	0	16364	
4366	0	16361	
4367	0	16368	
4368	0	16376	
4369	0	16372	
4370	0	16372	
4371	0	16376	
4372	0	16392	
4373	0	16396	
4374	0	16400	
4375	0	16404	
4376	0	16416	
4377	0	16410	
4378	0	16412	
4379	0	16420	
4380	0	16432	
4381	0	16432	
4382	0	16432	
4383	0	16448	
4384	0	16448	
4385	0	16456	
4386	0	16456	
4387	0	16472	
4388	0	16464	
4389	0	16472	
4390	0	16474	
4391	0	16488	
4392	0	16490	
4393	0	16488	
4394	0	16496	
4395	0	16504	
4396	0	16500	
4397	0	16524	
4398	0	16520	
4399	0	16520	
4400	0	16528	
4401	0	16532	
4402	0	16536	
4403	0	16544	
4404	0	16548	
4405	0	16552	
4406	0	16554	
4407	0	16554	
4408	0	16554	
4409	0	16564	
4410	0	16576	
4411	0	16576	
4412	0	16576	
4413	0	16578	
4414	0	16580	
4415	0	16580	
4416	0	16584	
4417	0	16592	
4418	0	16592	
4419	0	16600	
4420	0	16604	
4421	0	16608	
4422	0	16604	
4423	0	16608	
4424	0	16608	
4425	0	16612	
4426	0	16608	
4427	0	16612	
4428	0	16616	
4429	0	16616	
4430	0	16624	
4431	0	16628	
4432	0	16624	
4433	0	16628	
4434	0	16628	
4435	0	16632	
4436	0	16640	
4437	0	16640	
4438	0	16632	
4439	0	16632	
4440	0	16632	
4441	0	16632	
4442	0	16632	
4443	0	16648	
4444	0	16640	
4445	0	16640	
4446	0	16628	
4447	0	16640	
4448	0	16640	
4449	0	16640	
4450	0	16640	
4451	0	16632	
4452	0	16640	
4453	0	16640	
4454	0	16633	
4455	0	16628	
4456	0	16632	
4457	0	16628	
4458	0	16624	
4459	0	16616	
4460	0	16636	
4461	0	16612	
4462	0	16608	
4463	0	16608	
4464	0	16612	
4465	0	16608	
4466	0	16604	
4467	0	16596	
4468	0	16600	
4469	0	16592	
4470	0	16588	
4471	0	16588	
4472	0	16584	
4473	0	16580	
4474	0	16576	
4475	0	16572	
4476	0	16570	
4477	0	16576	
4478	0	16560	
4479	0	16562	
4480	0	16562	
4481	0	16568	
4482	0	16568	
4483	0	16556	
4484	0	16560	
4485	0	16552	
4486	0	16552	
4487	0	16544	
4488	0	16552	
4489	0	16538	
4490	0	16544	
4491	0	16536	
4492	0	16528	
4493	0	16540	
4494	0	16532	
4495	0	16528	
4496	0	16524	
4497	0	16528	
4498	0	16524	
4499	0	16524	
4500	0	16520	
4501	0	16512	
4502	0	16512	
4503	0	16509	
4504	0	16512	
4505	0	16512	
4506	0	16512	
4507	0	16498	
4508	0	16512	
4509	0	16508	
4510	0	16500	
4511	0	16504	
4512	0	16496	
4513	0	16504	
4514	0	16500	
4515	0	16500	
4516	0	16496	
4517	0	16496	
4518	0	16508	
4519	0	16500	
4520	0	16504	
4521	0	16500	
4522	0	16512	
4523	0	16496	
4524	0	16508	
4525	0	16512	
4526	0	16508	
4527	0	16512	
4528	0	16508	
4529	0	16512	
4530	0	16524	
4531	0	16520	
4532	0	16520	
4533	0	16512	
4534	0	16520	
4535	0	16528	
4536	0	16528	
4537	0	16536	
4538	0	16532	
4539	0	16528	
4540	0	16540	
4541	0	16536	
4542	0	16536	
4543	0	16540	
4544	0	16548	
4545	0	16536	
4546	0	16552	
4547	0	16552	
4548	0	16552	
4549	0	16560	
4550	0	16560	
4551	0	16568	
4552	0	16560	
4553	0	16560	
4554	0	16568	
4555	0	16580	
4556	0	16576	
4557	0	16576	
4558	0	16568	
4559	0	16576	
4560	0	16580	
4561	0	16580	
4562	0	16576	
4563	0	16588	
4564	0	16592	
4565	0	16584	
4566	0	16588	
4567	0	16592	
4568	0	16600	
4569	0	16600	
4570	0	16602	
4571	0	16588	
4572	0	16604	
4573	0	16608	
4574	0	16604	
4575	0	16612	
4576	0	16612	
4577	0	16612	
4578	0	16612	
4579	0	16612	
4580	0	16616	
4581	0	16616	
4582	0	16616	
4583	0	16624	
4584	0	16632	
4585	0	16624	
4586	0	16628	
4587	0	16628	
4588	0	16628	
4589	0	16628	
4590	0	16632	
4591	0	16632	
4592	0	16632	
4593	0	16640	
4594	0	16640	
4595	0	16632	
4596	0	16636	
4597	0	16640	
4598	0	16640	
4599	0	16632	
4600	0	16640	
4601	0	16632	
4602	0	16640	
4603	0	16640	
4604	0	16640	
4605	0	16640	
4606	0	16640	
4607	0	16644	
4608	0	16640	
4609	0	16652	
4610	0	16640	
4611	0	16640	
4612	0	16641	
4613	0	16652	
4614	0	16644	
4615	0	16640	
4616	0	16648	
4617	0	16648	
4618	0	16648	
4619	0	16644	
4620	0	16640	
4621	0	16644	
4622	0	16648	
4623	0	16650	
4624	0	16648	
4625	0	16650	
4626	0	16644	
4627	0	16640	
4628	0	16652	
4629	0	16652	
4630	0	16652	
4631	0	16660	
4632	0	16656	
4633	0	16650	
4634	0	16641	
4635	0	16648	
4636	0	16648	
4637	0	16648	
4638	0	16648	
4639	0	16660	
4640	0	16648	
4641	0	16649	
4642	0	16648	
4643	0	16644	
4644	0	16648	
4645	0	16640	
4646	0	16656	
4647	0	16656	
4648	0	16648	
4649	0	16656	
4650	0	16648	
4651	0	16648	
4652	0	16648	
4653	0	16648	
4654	0	16652	
4655	0	16656	
4656	0	16652	
4657	0	16656	
4658	0	16652	
4659	0	16652	
4660	0	16656	
4661	0	16660	
4662	0	16660	
4663	0	16658	
4664	0	16656	
4665	0	16660	
4666	0	16656	
4667	0	16668	
4668	0	16672	
4669	0	16672	
4670	0	16664	
4671	0	16664	
4672	0	16672	
4673	0	16674	
4674	0	16676	
4675	0	16676	
4676	0	16680	
4677	0	16684	
4678	0	16680	
4679	0	16690	
4680	0	16696	
4681	0	16704	
4682	0	16704	
4683	0	16704	
4684	0	16712	
4685	0	16712	
4686	0	16712	
4687	0	16712	
4688	0	16724	
4689	0	16724	
4690	0	16732	
4691	0	16728	
4692	0	16748	
4693	0	16736	
4694	0	16746	
4695	0	16736	
4696	0	16744	
4697	0	16752	
4698	0	16756	
4699	0	16760	
4700	0	16764	
4701	0	16768	
4702	0	16776	
4703	0	16776	
4704	0	16776	
4705	0	16776	
4706	0	16776	
4707	0	16788	
4708	0	16794	
4709	0	16792	
4710	0	16792	
4711	0	16800	
4712	0	16800	
4713	0	16808	
4714	0	16800	
4715	0	16812	
4716	0	16818	
4717	0	16820	
4718	0	16824	
4719	0	16824	
4720	0	16832	
4721	0	16828	
4722	0	16836	
4723	0	16840	
4724	0	16848	
4725	0	16844	
4726	0	16856	
4727	0	16858	
4728	0	16852	
4729	0	16860	
4730	0	16872	
4731	0	16872	
4732	0	16872	
4733	0	16880	
4734	0	16888	
4735	0	16884	
4736	0	16888	
4737	0	16888	
4738	0	16900	
4739	0	16904	
4740	0	16906	
4741	0	16916	
4742	0	16916	
4743	0	16916	
4744	0	16924	
4745	0	16928	
4746	0	16928	
4747	0	16936	
4748	0	16936	
4749	0	16952	
4750	0	16952	
4751	0	16952	
4752	0	16960	
4753	0	16960	
4754	0	16972	
4755	0	16972	
4756	0	16976	
4757	0	16985	
4758	0	16988	
4759	0	16984	
4760	0	17000	
4761	0	17000	
4762	0	17012	
4763	0	17016	
4764	0	17020	
4765	0	17024	
4766	0	17028	
4767	0	17024	
4768	0	17028	
4769	0	17040	
4770	0	17044	
4771	0	17052	
4772	0	17050	
4773	0	17072	
4774	0	17076	
4775	0	17072	
4776	0	17084	
4777	0	17080	
4778	0	17088	
4779	0	17088	
4780	0	17100	
4781	0	17108	
4782	0	17110	
4783	0	17108	
4784	0	17116	
4785	0	17124	
4786	0	17124	
4787	0	17132	
4788	0	17136	
4789	0	17144	
4790	0	17148	
4791	0	17152	
4792	0	17152	
4793	0	17156	
4794	0	17156	
4795	0	17164	
4796	0	17164	
4797	0	17176	
4798	0	17172	
4799	0	17180	
4800	0	17184	
4801	0	17184	
4802	0	17188	
4803	0	17200	
4804	0	17194	
4805	0	17200	
4806	0	17208	
4807	0	17208	
4808	0	17200	
4809	0	17210	
4810	0	17216	
4811	0	17224	
4812	0	17228	
4813	0	17224	
4814	0	17232	
4815	0	17236	
4816	0	17242	
4817	0	17240	
4818	0	17236	
4819	0	17248	
4820	0	17256	
4821	0	17260	
4822	0	17260	
4823	0	17260	
4824	0	17264	
4825	0	17272	
4826	0	17272	
4827	0	17280	
4828	0	17288	
4829	0	17288	
4830	0	17288	
4831	0	17300	
4832	0	17300	
4833	0	17304	
4834	0	17304	
4835	0	17316	
4836	0	17316	
4837	0	17316	
4838	0	17332	
4839	0	17336	
4840	0	17328	
4841	0	17336	
4842	0	17344	
4843	0	17344	
4844	0	17368	
4845	0	17360	
4846	0	17360	
4847	0	17368	
4848	0	17376	
4849	0	17384	
4850	0	17380	
4851	0	17394	
4852	0	17392	
4853	0	17400	
4854	0	17404	
4855	0	17408	
4856	0	17416	
4857	0	17424	
4858	0	17424	
4859	0	17432	
4860	0	17432	
4861	0	17448	
4862	0	17444	
4863	0	17448	
4864	0	17456	
4865	0	17464	
4866	0	17472	
4867	0	17476	
4868	0	17482	
4869	0	17488	
4870	0	17500	
4871	0	17496	
4872	0	17506	
4873	0	17520	
4874	0	17520	
4875	0	17520	
4876	0	17528	
4877	0	17544	
4878	0	17548	
4879	0	17556	
4880	0	17564	
4881	0	17572	
4882	0	17572	
4883	0	17580	
4884	0	17584	
4885	0	17596	
4886	0	17596	
4887	0	17612	
4888	0	17620	
4889	0	17628	
4890	0	17640	
4891	0	17640	
4892	0	17652	
4893	0	17656	
4894	0	17664	
4895	0	17664	
4896	0	17680	
4897	0	17680	
4898	0	17688	
4899	0	17692	
4900	0	17712	
4901	0	17714	
4902	0	17720	
4903	0	17724	
4904	0	17728	
4905	0	17732	
4906	0	17744	
4907	0	17756	
4908	0	17760	
4909	0	17760	
4910	0	17768	
4911	0	17776	
4912	0	17780	
4913	0	17788	
4914	0	17794	
4915	0	17804	
4916	0	17808	
4917	0	17816	
4918	0	17808	
4919	0	17824	
4920	0	17836	
4921	0	17832	
4922	0	17844	
4923	0	17856	
4924	0	17852	
4925	0	17856	
4926	0	17868	
4927	0	17872	
4928	0	17872	
4929	0	17880	
4930	0	17890	
4931	0	17888	
4932	0	17888	
4933	0	17896	
4934	0	17904	
4935	0	17920	
4936	0	17924	
4937	0	17924	
4938	0	17932	
4939	0	17932	
4940	0	17944	
4941	0	17946	
4942	0	17952	
4943	0	17952	
4944	0	17960	
4945	0	17960	
4946	0	17968	
4947	0	17972	
4948	0	17980	
4949	0	17984	
4950	0	17992	
4951	0	17996	
4952	0	18000	
4953	0	18008	
4954	0	18012	
4955	0	18016	
4956	0	18024	
4957	0	18024	
4958	0	18028	
4959	0	18040	
4960	0	18040	
4961	0	18048	
4962	0	18056	
4963	0	18056	
4964	0	18060	
4965	0	18072	
4966	0	18064	
4967	0	18072	
4968	0	18084	
4969	0	18080	
4970	0	18088	
4971	0	18104	
4972	0	18100	
4973	0	18112	
4974	0	18112	
4975	0	18116	
4976	0	18120	
4977	0	18132	
4978	0	18128	
4979	0	18136	
4980	0	18144	
4981	0	18152	
4982	0	18156	
4983	0	18160	
4984	0	18168	
4985	0	18176	
4986	0	18176	
4987	0	18184	
4988	0	18184	
4989	0	18200	
4990	0	18208	
4991	0	18208	
4992	0	18216	
4993	0	18224	
4994	0	18232	
4995	0	18232	
4996	0	18244	
4997	0	18252	
4998	0	18248	
4999	0	18260	
5000	0	18272	
5001	0	18264	
5002	0	18276	
5003	0	18292	
5004	0	18284	
5005	0	18296	
5006	0	18312	
5007	0	18312	
5008	0	18316	
5009	0	18328	
5010	0	18328	
5011	0	18344	
5012	0	18352	
5013	0	18348	
5014	0	18360	
5015	0	18368	
5016	0	18372	
5017	0	18380	
5018	0	18384	
5019	0	18392	
5020	0	18396	
5021	0	18400	
5022	0	18416	
5023	0	18420	
5024	0	18416	
5025	0	18440	
5026	0	18436	
5027	0	18444	
5028	0	18448	
5029	0	18456	
5030	0	18460	
5031	0	18464	
5032	0	18476	
5033	0	18484	
5034	0	18484	
5035	0	18484	
5036	0	18496	
5037	0	18504	
5038	0	18512	
5039	0	18512	
5040	0	18516	
5041	0	18520	
5042	0	18532	
5043	0	18536	
5044	0	18548	
5045	0	18544	
5046	0	18552	
5047	0	18552	
5048	0	18552	
5049	0	18568	
5050	0	18570	
5051	0	18576	
5052	0	18584	
5053	0	18586	
5054	0	18592	
5055	0	18596	
5056	0	18604	
5057	0	18608	
5058	0	18616	
5059	0	18624	
5060	0	18624	
5061	0	18632	
5062	0	18640	
5063	0	18644	
5064	0	18648	
5065	0	18652	
5066	0	18664	
5067	0	18672	
5068	0	18672	
5069	0	18672	
5070	0	18688	
5071	0	18696	
5072	0	18688	
5073	0	18704	
5074	0	18700	
5075	0	18712	
5076	0	18720	
5077	0	18724	
5078	0	18736	
5079	0	18728	
5080	0	18744	
5081	0	18752	
5082	0	18756	
5083	0	18764	
5084	0	18768	
5085	0	18772	
5086	0	18776	
5087	0	18778	
5088	0	18792	
5089	0	18792	
5090	0	18808	
5091	0	18800	
5092	0	18816	
5093	0	18810	
5094	0	18824	
5095	0	18832	
5096	0	18832	
5097	0	18848	
5098	0	18844	
5099	0	18852	
5100	0	18856	
5101	0	18868	
5102	0	18872	
5103	0	18880	
5104	0	18888	
5105	0	18896	
5106	0	18904	
5107	0	18912	
5108	0	18912	
5109	0	18916	
5110	0	18924	
5111	0	18928	
5112	0	18936	
5113	0	18948	
5114	0	18944	
5115	0	18952	
5116	0	18960	
5117	0	18968	
5118	0	18976	
5119	0	18988	
5120	0	18988	
5121	0	19000	
5122	0	19004	
5123	0	19008	
5124	0	19012	
5125	0	19024	
5126	0	19024	
5127	0	19028	
5128	0	19040	
5129	0	19049	
5130	0	19048	
5131	0	19052	
5132	0	19064	
5133	0	19065	
5134	0	19080	
5135	0	19088	
5136	0	19096	
5137	0	19100	
5138	0	19108	
5139	0	19116	
5140	0	19128	
5141	0	19132	
5142	0	19128	
5143	0	19144	
5144	0	19136	
5145	0	19152	
5146	0	19160	
5147	0	19168	
5148	0	19180	
5149	0	19184	
5150	0	19192	
5151	0	19208	
5152	0	19208	
5153	0	19216	
5154	0	19224	
5155	0	19232	
5156	0	19236	
5157	0	19240	
5158	0	19240	
5159	0	19256	
5160	0	19276	
5161	0	19264	
5162	0	19272	
5163	0	19296	
5164	0	19296	
5165	0	19308	
5166	0	19312	
5167	0	19320	
5168	0	19324	
5169	0	19340	
5170	0	19344	
5171	0	19356	
5172	0	19352	
5173	0	19368	
5174	0	19380	
5175	0	19384	
5176	0	19385	
5177	0	19392	
5178	0	19396	
5179	0	19412	
5180	0	19412	
5181	0	19428	
5182	0	19436	
5183	0	19436	
5184	0	19456	
5185	0	19460	
5186	0	19460	
5187	0	19476	
5188	0	19480	
5189	0	19484	
5190	0	19488	
5191	0	19492	
5192	0	19508	
5193	0	19512	
5194	0	19520	
5195	0	19520	
5196	0	19536	
5197	0	19536	
5198	0	19548	
5199	0	19552	
5200	0	19556	
5201	0	19568	
5202	0	19568	
5203	0	19576	
5204	0	19584	
5205	0	19592	
5206	0	19600	
5207	0	19608	
5208	0	19608	
5209	0	19616	
5210	0	19624	
5211	0	19624	
5212	0	19640	
5213	0	19644	
5214	0	19648	
5215	0	19656	
5216	0	19660	
5217	0	19664	
5218	0	19672	
5219	0	19668	
5220	0	19680	
5221	0	19692	
5222	0	19700	
5223	0	19700	
5224	0	19704	
5225	0	19720	
5226	0	19712	
5227	0	19724	
5228	0	19732	
5229	0	19728	
5230	0	19732	
5231	0	19748	
5232	0	19752	
5233	0	19752	
5234	0	19764	
5235	0	19768	
5236	0	19776	
5237	0	19776	
5238	0	19784	
5239	0	19800	
5240	0	19788	
5241	0	19800	
5242	0	19816	
5243	0	19808	
5244	0	19824	
5245	0	19832	
5246	0	19828	
5247	0	19844	
5248	0	19840	
5249	0	19848	
5250	0	19860	
5251	0	19860	
5252	0	19872	
5253	0	19872	
5254	0	19888	
5255	0	19884	
5256	0	19900	
5257	0	19904	
5258	0	19908	
5259	0	19912	
5260	0	19920	
5261	0	19920	
5262	0	19932	
5263	0	19936	
5264	0	19944	
5265	0	19952	
5266	0	19960	
5267	0	19968	
5268	0	19976	
5269	0	19976	
5270	0	19980	
5271	0	19992	
5272	0	19992	
5273	0	20000	
5274	0	20008	
5275	0	20016	
5276	0	20016	
5277	0	20032	
5278	0	20028	
5279	0	20032	
5280	0	20040	
5281	0	20056	
5282	0	20048	
5283	0	20056	
5284	0	20060	
5285	0	20064	
5286	0	20076	
5287	0	20072	
5288	0	20080	
5289	0	20080	
5290	0	20088	
5291	0	20096	
5292	0	20096	
5293	0	20108	
5294	0	20108	
5295	0	20124	
5296	0	20124	
5297	0	20124	
5298	0	20124	
5299	0	20136	
5300	0	20144	
5301	0	20148	
5302	0	20152	
5303	0	20156	
5304	0	20169	
5305	0	20168	
5306	0	20176	
5307	0	20184	
5308	0	20188	
5309	0	20192	
5310	0	20196	
5311	0	20208	
5312	0	20212	
5313	0	20216	
5314	0	20228	
5315	0	20236	
5316	0	20232	
5317	0	20236	
5318	0	20248	
5319	0	20264	
5320	0	20264	
5321	0	20272	
5322	0	20280	
5323	0	20280	
5324	0	20292	
5325	0	20292	
5326	0	20296	
5327	0	20308	
5328	0	20312	
5329	0	20320	
5330	0	20332	
5331	0	20324	
5332	0	20344	
5333	0	20344	
5334	0	20344	
5335	0	20352	
5336	0	20360	
5337	0	20360	
5338	0	20356	
5339	0	20376	
5340	0	20372	
5341	0	20376	
5342	0	20388	
5343	0	20394	
5344	0	20392	
5345	0	20392	
5346	0	20408	
5347	0	20408	
5348	0	20400	
5349	0	20408	
5350	0	20420	
5351	0	20424	
5352	0	20416	
5353	0	20424	
5354	0	20434	
5355	0	20440	
5356	0	20448	
5357	0	20448	
5358	0	20444	
5359	0	20456	
5360	0	20464	
5361	0	20468	
5362	0	20472	
5363	0	20488	
5364	0	20480	
5365	0	20480	
5366	0	20496	
5367	0	20504	
5368	0	20496	
5369	0	20500	
5370	0	20512	
5371	0	20524	
5372	0	20520	
5373	0	20528	
5374	0	20529	
5375	0	20540	
5376	0	20544	
5377	0	20548	
5378	0	20548	
5379	0	20552	
5380	0	20556	
5381	0	20564	
5382	0	20568	
5383	0	20576	
5384	0	20584	
5385	0	20584	
5386	0	20592	
5387	0	20592	
5388	0	20596	
5389	0	20600	
5390	0	20608	
5391	0	20616	
5392	0	20616	
5393	0	20628	
5394	0	20636	
5395	0	20640	
5396	0	20636	
5397	0	20656	
5398	0	20656	
5399	0	20660	
5400	0	20664	
5401	0	20672	
5402	0	20672	
5403	0	20688	
5404	0	20688	
5405	0	20696	
5406	0	20700	
5407	0	20712	
5408	0	20712	
5409	0	20720	
5410	0	20728	
5411	0	20744	
5412	0	20744	
5413	0	20752	
5414	0	20752	
5415	0	20768	
5416	0	20768	
5417	0	20768	
5418	0	20784	
5419	0	20800	
5420	0	20796	
5421	0	20800	
5422	0	20804	
5423	0	20808	
5424	0	20820	
5425	0	20816	
5426	0	20820	
5427	0	20832	
5428	0	20836	
5429	0	20848	
5430	0	20848	
5431	0	20852	
5432	0	20860	
5433	0	20860	
5434	0	20864	
5435	0	20868	
5436	0	20876	
5437	0	20872	
5438	0	20876	
5439	0	20884	
5440	0	20896	
5441	0	20904	
5442	0	20896	
5443	0	20904	
5444	0	20904	
5445	0	20912	
5446	0	20908	
5447	0	20916	
5448	0	20920	
5449	0	20924	
5450	0	20928	
5451	0	20928	
5452	0	20928	
5453	0	20928	
5454	0	20944	
5455	0	20932	
5456	0	20940	
5457	0	20944	
5458	0	20944	
5459	0	20952	
5460	0	20948	
5461	0	20952	
5462	0	20960	
5463	0	20960	
5464	0	20964	
5465	0	20960	
5466	0	20968	
5467	0	20972	
5468	0	20976	
5469	0	20976	
5470	0	20984	
5471	0	20984	
5472	0	20984	
5473	0	20992	
5474	0	20984	
5475	0	20992	
5476	0	21000	
5477	0	21000	
5478	0	21008	
5479	0	21008	
5480	0	21008	
5481	0	21012	
5482	0	21016	
5483	0	21000	
5484	0	21024	
5485	0	21028	
5486	0	21024	
5487	0	21032	
5488	0	21036	
5489	0	21040	
5490	0	21048	
5491	0	21048	
5492	0	21056	
5493	0	21056	
5494	0	21056	
5495	0	21058	
5496	0	21064	
5497	0	21072	
5498	0	21076	
5499	0	21080	
5500	0	21088	
5501	0	21096	
5502	0	21088	
5503	0	21092	
5504	0	21104	
5505	0	21104	
5506	0	21108	
5507	0	21116	
5508	0	21128	
5509	0	21124	
5510	0	21120	
5511	0	21128	
5512	0	21144	
5513	0	21144	
5514	0	21146	
5515	0	21160	
5516	0	21152	
5517	0	21160	
5518	0	21160	
5519	0	21176	
5520	0	21172	
5521	0	21176	
5522	0	21184	
5523	0	21188	
5524	0	21184	
5525	0	21200	
5526	0	21204	
5527	0	21208	
5528	0	21208	
5529	0	21216	
5530	0	21220	
5531	0	21220	
5532	0	21228	
5533	0	21232	
5534	0	21228	
5535	0	21248	
5536	0	21248	
5537	0	21248	
5538	0	21260	
5539	0	21248	
5540	0	21264	
5541	0	21268	
5542	0	21272	
5543	0	21276	
5544	0	21272	
5545	0	21288	
5546	0	21288	
5547	0	21288	
5548	0	21296	
5549	0	21296	
5550	0	21296	
5551	0	21300	
5552	0	21304	
5553	0	21312	
5554	0	21320	
5555	0	21316	
5556	0	21322	
5557	0	21330	
5558	0	21328	
5559	0	21336	
5560	0	21336	
5561	0	21344	
5562	0	21352	
5563	0	21352	
5564	0	21356	
5565	0	21364	
5566	0	21364	
5567	0	21364	
5568	0	21360	
5569	0	21376	
5570	0	21376	
5571	0	21380	
5572	0	21384	
5573	0	21376	
5574	0	21380	
5575	0	21388	
5576	0	21396	
5577	0	21384	
5578	0	21392	
5579	0	21396	
5580	0	21408	
5581	0	21408	
5582	0	21408	
5583	0	21416	
5584	0	21418	
5585	0	21424	
5586	0	21424	
5587	0	21428	
5588	0	21420	
5589	0	21432	
5590	0	21440	
5591	0	21448	
5592	0	21428	
5593	0	21448	
5594	0	21444	
5595	0	21440	
5596	0	21448	
5597	0	21458	
5598	0	21464	
5599	0	21456	
5600	0	21460	
5601	0	21464	
5602	0	21464	
5603	0	21468	
5604	0	21468	
5605	0	21472	
5606	0	21472	
5607	0	21480	
5608	0	21472	
5609	0	21480	
5610	0	21480	
5611	0	21488	
5612	0	21496	
5613	0	21490	
5614	0	21492	
5615	0	21492	
5616	0	21496	
5617	0	21500	
5618	0	21496	
5619	0	21512	
5620	0	21508	
5621	0	21512	
5622	0	21512	
5623	0	21512	
5624	0	21520	
5625	0	21520	
5626	0	21520	
5627	0	21520	
5628	0	21528	
5629	0	21528	
5630	0	21536	
5631	0	21536	
5632	0	21536	
5633	0	21536	
5634	0	21536	
5635	0	21544	
5636	0	21544	
5637	0	21544	
5638	0	21560	
5639	0	21556	
5640	0	21560	
5641	0	21568	
5642	0	21576	
5643	0	21576	
5644	0	21572	
5645	0	21584	
5646	0	21588	
5647	0	21592	
5648	0	21592	
5649	0	21600	
5650	0	21608	
5651	0	21608	
5652	0	21616	
5653	0	21624	
5654	0	21632	
5655	0	21636	
5656	0	21636	
5657	0	21652	
5658	0	21652	
5659	0	21656	
5660	0	21668	
5661	0	21672	
5662	0	21688	
5663	0	21684	
5664	0	21696	
5665	0	21704	
5666	0	21704	
5667	0	21712	
5668	0	21728	
5669	0	21728	
5670	0	21736	
5671	0	21748	
5672	0	21744	
5673	0	21760	
5674	0	21768	
5675	0	21768	
5676	0	21788	
5677	0	21788	
5678	0	21792	
5679	0	21800	
5680	0	21812	
5681	0	21820	
5682	0	21832	
5683	0	21832	
5684	0	21852	
5685	0	21848	
5686	0	21856	
5687	0	21856	
5688	0	21876	
5689	0	21884	
5690	0	21892	
5691	0	21904	
5692	0	21908	
5693	0	21920	
5694	0	21920	
5695	0	21920	
5696	0	21944	
5697	0	21956	
5698	0	21952	
5699	0	21968	
5700	0	21976	
5701	0	21992	
5702	0	22008	
5703	0	22008	
5704	0	22016	
5705	0	22020	
5706	0	22032	
5707	0	22040	
5708	0	22050	
5709	0	22056	
5710	0	22072	
5711	0	22072	
5712	0	22082	
5713	0	22096	
5714	0	22112	
5715	0	22124	
5716	0	22136	
5717	0	22144	
5718	0	22152	
5719	0	22168	
5720	0	22176	
5721	0	22200	
5722	0	22200	
5723	0	22216	
5724	0	22220	
5725	0	22240	
5726	0	22248	
5727	0	22260	
5728	0	22272	
5729	0	22296	
5730	0	22304	
5731	0	22312	
5732	0	22336	
5733	0	22344	
5734	0	22360	
5735	0	22368	
5736	0	22386	
5737	0	22400	
5738	0	22412	
5739	0	22420	
5740	0	22440	
5741	0	22456	
5742	0	22464	
5743	0	22488	
5744	0	22490	
5745	0	22504	
5746	0	22522	
5747	0	22536	
5748	0	22546	
5749	0	22564	
5750	0	22580	
5751	0	22584	
5752	0	22604	
5753	0	22616	
5754	0	22632	
5755	0	22652	
5756	0	22656	
5757	0	22680	
5758	0	22696	
5759	0	22704	
5760	0	22720	
5761	0	22728	
5762	0	22736	
5763	0	22760	
5764	0	22768	
5765	0	22784	
5766	0	22792	
5767	0	22812	
5768	0	22832	
5769	0	22824	
5770	0	22840	
5771	0	22856	
5772	0	22868	
5773	0	22896	
5774	0	22896	
5775	0	22904	
5776	0	22920	
5777	0	22936	
5778	0	22948	
5779	0	22960	
5780	0	22976	
5781	0	22988	
5782	0	22996	
5783	0	23008	
5784	0	23016	
5785	0	23036	
5786	0	23048	
5787	0	23056	
5788	0	23064	
5789	0	23076	
5790	0	23088	
5791	0	23104	
5792	0	23120	
5793	0	23128	
5794	0	23132	
5795	0	23148	
5796	0	23160	
5797	0	23168	
5798	0	23184	
5799	0	23192	
5800	0	23204	
5801	0	23216	
5802	0	23224	
5803	0	23240	
5804	0	23244	
5805	0	23248	
5806	0	23268	
5807	0	23272	
5808	0	23288	
5809	0	23298	
5810	0	23308	
5811	0	23320	
5812	0	23328	
5813	0	23340	
5814	0	23344	
5815	0	23360	
5816	0	23364	
5817	0	23372	
5818	0	23384	
5819	0	23392	
5820	0	23412	
5821	0	23420	
5822	0	23440	
5823	0	23440	
5824	0	23456	
5825	0	23456	
5826	0	23480	
5827	0	23480	
5828	0	23496	
5829	0	23512	
5830	0	23516	
5831	0	23536	
5832	0	23544	
5833	0	23552	
5834	0	23576	
5835	0	23584	
5836	0	23594	
5837	0	23624	
5838	0	23616	
5839	0	23632	
5840	0	23656	
5841	0	23672	
5842	0	23688	
5843	0	23696	
5844	0	23712	
5845	0	23728	
5846	0	23744	
5847	0	23764	
5848	0	23776	
5849	0	23788	
5850	0	23800	
5851	0	23832	
5852	0	23836	
5853	0	23856	
5854	0	23880	
5855	0	23884	
5856	0	23904	
5857	0	23920	
5858	0	23944	
5859	0	23952	
5860	0	23976	
5861	0	23984	
5862	0	24000	
5863	0	24020	
5864	0	24040	
5865	0	24064	
5866	0	24084	
5867	0	24112	
5868	0	24128	
5869	0	24144	
5870	0	24168	
5871	0	24184	
5872	0	24200	
5873	0	24224	
5874	0	24240	
5875	0	24264	
5876	0	24280	
5877	0	24304	
5878	0	24320	
5879	0	24344	
5880	0	24372	
5881	0	24392	
5882	0	24408	
5883	0	24432	
5884	0	24448	
5885	0	24472	
5886	0	24498	
5887	0	24520	
5888	0	24544	
5889	0	24560	
5890	0	24584	
5891	0	24616	
5892	0	24640	
5893	0	24664	
5894	0	24676	
5895	0	24696	
5896	0	24724	
5897	0	24748	
5898	0	24768	
5899	0	24792	
5900	0	24816	
5901	0	24836	
5902	0	24864	
5903	0	24884	
5904	0	24916	
5905	0	24928	
5906	0	24952	
5907	0	24992	
5908	0	25008	
5909	0	25024	
5910	0	25048	
5911	0	25072	
5912	0	25096	
5913	0	25120	
5914	0	25144	
5915	0	25176	
5916	0	25192	
5917	0	25212	
5918	0	25240	
5919	0	25256	
5920	0	25280	
5921	0	25304	
5922	0	25328	
5923	0	25344	
5924	0	25376	
5925	0	25396	
5926	0	25416	
5927	0	25440	
5928	0	25464	
5929	0	25496	
5930	0	25504	
5931	0	25536	
5932	0	25552	
5933	0	25584	
5934	0	25600	
5935	0	25624	
5936	0	25648	
5937	0	25668	
5938	0	25696	
5939	0	25720	
5940	0	25744	
5941	0	25772	
5942	0	25784	
5943	0	25808	
5944	0	25828	
5945	0	25856	
5946	0	25880	
5947	0	25904	
5948	0	25920	
5949	0	25944	
5950	0	25960	
5951	0	25984	
5952	0	26008	
5953	0	26032	
5954	0	26056	
5955	0	26080	
5956	0	26096	
5957	0	26120	
5958	0	26148	
5959	0	26160	
5960	0	26184	
5961	0	26208	
5962	0	26232	
5963	0	26248	
5964	0	26272	
5965	0	26296	
5966	0	26320	
5967	0	26344	
5968	0	26368	
5969	0	26392	
5970	0	26408	
5971	0	26432	
5972	0	26456	
5973	0	26484	
5974	0	26504	
5975	0	26528	
5976	0	26552	
5977	0	26576	
5978	0	26600	
5979	0	26632	
5980	0	26648	
5981	0	26664	
5982	0	26688	
5983	0	26720	
5984	0	26744	
5985	0	26756	
5986	0	26784	
5987	0	26816	
5988	0	26840	
5989	0	26856	
5990	0	26888	
5991	0	26912	
5992	0	26936	
5993	0	26960	
5994	0	26984	
5995	0	27008	
5996	0	27040	
5997	0	27064	
5998	0	27088	
5999	0	27104	
6000	0	27132	
6001	0	27160	
6002	0	27192	
6003	0	27220	
6004	0	27236	
6005	0	27264	
6006	0	27292	
6007	0	27320	
6008	0	27344	
6009	0	27368	
6010	0	27400	
6011	0	27424	
6012	0	27456	
6013	0	27464	
6014	0	27500	
6015	0	27520	
6016	0	27560	
6017	0	27584	
6018	0	27608	
6019	0	27632	
6020	0	27656	
6021	0	27688	
6022	0	27724	
6023	0	27744	
6024	0	27772	
6025	0	27800	
6026	0	27824	
6027	0	27856	
6028	0	27880	
6029	0	27912	
6030	0	27944	
6031	0	27968	
6032	0	27992	
6033	0	28024	
6034	0	28048	
6035	0	28072	
6036	0	28104	
6037	0	28136	
6038	0	28168	
6039	0	28200	
6040	0	28224	
6041	0	28248	
6042	0	28280	
6043	0	28304	
6044	0	28328	
6045	0	28356	
6046	0	28388	
6047	0	28416	
6048	0	28448	
6049	0	28472	
6050	0	28504	
6051	0	28528	
6052	0	28568	
6053	0	28600	
6054	0	28616	
6055	0	28640	
6056	0	28672	
6057	0	28712	
6058	0	28736	
6059	0	28768	
6060	0	28800	
6061	0	28832	
6062	0	28848	
6063	0	28884	
6064	0	28920	
6065	0	28952	
6066	0	28976	
6067	0	29008	
6068	0	29040	
6069	0	29068	
6070	0	29104	
6071	0	29144	
6072	0	29160	
6073	0	29200	
6074	0	29232	
6075	0	29252	
6076	0	29296	
6077	0	29328	
6078	0	29352	
6079	0	29392	
6080	0	29424	
6081	0	29464	
6082	0	29496	
6083	0	29520	
6084	0	29560	
6085	0	29592	
6086	0	29632	
6087	0	29656	
6088	0	29696	
6089	0	29736	
6090	0	29760	
6091	0	29792	
6092	0	29832	
6093	0	29872	
6094	0	29904	
6095	0	29936	
6096	0	29968	
6097	0	30000	
6098	0	30056	
6099	0	30080	
6100	0	30112	
6101	0	30152	
6102	0	30184	
6103	0	30232	
6104	0	30264	
6105	0	30304	
6106	0	30336	
6107	0	30376	
6108	0	30416	
6109	0	30432	
6110	0	30488	
6111	0	30520	
6112	0	30560	
6113	0	30600	
6114	0	30640	
6115	0	30672	
6116	0	30704	
6117	0	30744	
6118	0	30792	
6119	0	30816	
6120	0	30864	
6121	0	30896	
6122	0	30936	
6123	0	30976	
6124	0	31024	
6125	0	31064	
6126	0	31096	
6127	0	31136	
6128	0	31168	
6129	0	31208	
6130	0	31240	
6131	0	31284	
6132	0	31336	
6133	0	31360	
6134	0	31400	
6135	0	31440	
6136	0	31488	
6137	0	31520	
6138	0	31560	
6139	0	31600	
6140	0	31648	
6141	0	31688	
6142	0	31728	
6143	0	31768	
6144	0	31808	
6145	0	31848	
6146	0	31888	
6147	0	31928	
6148	0	31972	
6149	0	32016	
6150	0	32064	
6151	0	32096	
6152	0	32144	
6153	0	32192	
6154	0	32232	
6155	0	32280	
6156	0	32320	
6157	0	32360	
6158	0	32408	
6159	0	32444	
6160	0	32492	
6161	0	32536	
6162	0	32576	
6163	0	32624	
6164	0	32664	
6165	0	32704	
6166	0	32752	
6167	0	32792	
6168	0	32840	
6169	0	32872	
6170	0	32912	
6171	0	32960	
6172	0	33000	
6173	0	33048	
6174	0	33096	
6175	0	33128	
6176	0	33176	
6177	0	33224	
6178	0	33256	
6179	0	33304	
6180	0	33356	
6181	0	33392	
6182	0	33432	
6183	0	33480	
6184	0	33524	
6185	0	33568	
6186	0	33616	
6187	0	33656	
6188	0	33704	
6189	0	33736	
6190	0	33784	
6191	0	33836	
6192	0	33888	
6193	0	33920	
6194	0	33960	
6195	0	34016	
6196	0	34056	
6197	0	34096	
6198	0	34144	
6199	0	34192	
6200	0	34240	
6201	0	34288	
6202	0	34336	
6203	0	34372	
6204	0	34416	
6205	0	34464	
6206	0	34512	
6207	0	34552	
6208	0	34616	
6209	0	34648	
6210	0	34696	
6211	0	34760	
6212	0	34792	
6213	0	34840	
6214	0	34888	
6215	0	34936	
6216	0	34984	
6217	0	35024	
6218	0	35080	
6219	0	35128	
6220	0	35168	
6221	0	35208	
6222	0	35272	
6223	0	35320	
6224	0	35360	
6225	0	35424	
6226	0	35464	
6227	0	35512	
6228	0	35568	
6229	0	35600	
6230	0	35664	
6231	0	35704	
6232	0	35760	
6233	0	35816	
6234	0	35848	
6235	0	35912	
6236	0	35960	
6237	0	36000	
6238	0	36044	
6239	0	36104	
6240	0	36160	
6241	0	36208	
6242	0	36248	
6243	0	36312	
6244	0	36352	
6245	0	36400	
6246	0	36456	
6247	0	36512	
6248	0	36560	
6249	0	36600	
6250	0	36656	
6251	0	36704	
6252	0	36760	
6253	0	36808	
6254	0	36856	
6255	0	36920	
6256	0	36960	
6257	0	37016	
6258	0	37064	
6259	0	37120	
6260	0	37168	
6261	0	37224	
6262	0	37264	
6263	0	37328	
6264	0	37372	
6265	0	37432	
6266	0	37472	
6267	0	37536	
6268	0	37584	
6269	0	37632	
6270	0	37672	
6271	0	37712	
6272	0	37768	
6273	0	37832	
6274	0	37880	
6275	0	37920	
6276	0	37976	
6277	0	38024	
6278	0	38064	
6279	0	38112	
6280	0	38176	
6281	0	38216	
6282	0	38280	
6283	0	38328	
6284	0	38368	
6285	0	38432	
6286	0	38480	
6287	0	38528	
6288	0	38576	
6289	0	38632	
6290	0	38680	
6291	0	38728	
6292	0	38776	
6293	0	38816	
6294	0	38880	
6295	0	38928	
6296	0	38984	
6297	0	39024	
6298	0	39088	
6299	0	39120	
6300	0	39176	
6301	0	39232	
6302	0	39272	
6303	0	39320	
6304	0	39384	
6305	0	39424	
6306	0	39472	
6307	0	39520	
6308	0	39584	
6309	0	39624	
6310	0	39688	
6311	0	39732	
6312	0	39760	
6313	0	39832	
6314	0	39872	
6315	0	39928	
6316	0	39968	
6317	0	40008	
6318	0	40064	
6319	0	40112	
6320	0	40168	
6321	0	40224	
6322	0	40264	
6323	0	40312	
6324	0	40360	
6325	0	40400	
6326	0	40464	
6327	0	40496	
6328	0	40552	
6329	0	40600	
6330	0	40656	
6331	0	40688	
6332	0	40744	
6333	0	40808	
6334	0	40848	
6335	0	40896	
6336	0	40952	
6337	0	41000	
6338	0	41040	
6339	0	41104	
6340	0	41128	
6341	0	41184	
6342	0	41240	
6343	0	41304	
6344	0	41344	
6345	0	41392	
6346	0	41440	
6347	0	41496	
6348	0	41536	
6349	0	41592	
6350	0	41640	
6351	0	41696	
6352	0	41728	
6353	0	41784	
6354	0	41840	
6355	0	41880	
6356	0	41936	
6357	0	41984	
6358	0	42040	
6359	0	42080	
6360	0	42144	
6361	0	42200	
6362	0	42248	
6363	0	42304	
6364	0	42352	
6365	0	42408	
6366	0	42464	
6367	0	42512	
6368	0	42560	
6369	0	42608	
6370	0	42664	
6371	0	42712	
6372	0	42768	
6373	0	42824	
6374	0	42872	
6375	0	42936	
6376	0	42984	
6377	0	43032	
6378	0	43088	
6379	0	43144	
6380	0	43200	
6381	0	43248	
6382	0	43312	
6383	0	43360	
6384	0	43416	
6385	0	43480	
6386	0	43536	
6387	0	43584	
6388	0	43632	
6389	0	43696	
6390	0	43752	
6391	0	43808	
6392	0	43848	
6393	0	43936	
6394	0	43984	
6395	0	44040	
6396	0	44088	
6397	0	44160	
6398	0	44208	
6399	0	44264	
6400	0	44320	
6401	0	44384	
6402	0	44432	
6403	0	44496	
6404	0	44552	
6405	0	44616	
6406	0	44664	
6407	0	44736	
6408	0	44784	
6409	0	44840	
6410	0	44912	
6411	0	44960	
6412	0	45032	
6413	0	45080	
6414	0	45136	
6415	0	45200	
6416	0	45264	
6417	0	45320	
6418	0	45376	
6419	0	45432	
6420	0	45496	
6421	0	45552	
6422	0	45616	
6423	0	45664	
6424	0	45720	
6425	0	45792	
6426	0	45848	
6427	0	45900	
6428	0	45952	
6429	0	46024	
6430	0	46088	
6431	0	46136	
6432	0	46200	
6433	0	46264	
6434	0	46328	
6435	0	46376	
6436	0	46440	
6437	0	46496	
6438	0	46568	
6439	0	46616	
6440	0	46672	
6441	0	46752	
6442	0	46796	
6443	0	46856	
6444	0	46920	
6445	0	46968	
6446	0	47040	
6447	0	47104	
6448	0	47168	
6449	0	47208	
6450	0	47272	
6451	0	47336	
6452	0	47392	
6453	0	47448	
6454	0	47512	
6455	0	47552	
6456	0	47632	
6457	0	47680	
6458	0	47740	
6459	0	47816	
6460	0	47872	
6461	0	47920	
6462	0	47968	
6463	0	48040	
6464	0	48104	
6465	0	48160	
6466	0	48208	
6467	0	48272	
6468	0	48344	
6469	0	48384	
6470	0	48456	
6471	0	48504	
6472	0	48560	
6473	0	48624	
6474	0	48672	
6475	0	48744	
6476	0	48808	
6477	0	48872	
6478	0	48936	
6479	0	48976	
6480	0	49040	
6481	0	49096	
6482	0	49144	
6483	0	49216	
6484	0	49272	
6485	0	49344	
6486	0	49384	
6487	0	49448	
6488	0	49520	
6489	0	49576	
6490	0	49632	
6491	0	49688	
6492	0	49744	
6493	0	49816	
6494	0	49864	
6495	0	49920	
6496	0	49968	
6497	0	50024	
6498	0	50088	
6499	0	50144	
6500	0	50192	
6501	0	50288	
6502	0	50312	
6503	0	50384	
6504	0	50440	
6505	0	50496	
6506	0	50552	
6507	0	50624	
6508	0	50680	
6509	0	50728	
6510	0	50784	
6511	0	50848	
6512	0	50912	
6513	0	50960	
6514	0	51032	
6515	0	51072	
6516	0	51136	
6517	0	51200	
6518	0	51264	
6519	0	51320	
6520	0	51368	
6521	0	51432	
6522	0	51496	
6523	0	51544	
6524	0	51592	
6525	0	51656	
6526	0	51728	
6527	0	51776	
6528	0	51832	
6529	0	51872	
6530	0	51952	
6531	0	52000	
6532	0	52056	
6533	0	52128	
6534	0	52176	
6535	0	52232	
6536	0	52288	
6537	0	52344	
6538	0	52416	
6539	0	52472	
6540	0	52528	
6541	0	52584	
6542	0	52648	
6543	0	52712	
6544	0	52760	
6545	0	52808	
6546	0	52864	
6547	0	52928	
6548	0	52992	
6549	0	53056	
6550	0	53120	
6551	0	53152	
6552	0	53216	
6553	0	53280	
6554	0	53328	
6555	0	53392	
6556	0	53440	
6557	0	53496	
6558	0	53552	
6559	0	53600	
6560	0	53664	
6561	0	53712	
6562	0	53800	
6563	0	53840	
6564	0	53904	
6565	0	53952	
6566	0	54000	
6567	0	54056	
6568	0	54120	
6569	0	54176	
6570	0	54240	
6571	0	54268	
6572	0	54344	
6573	0	54392	
6574	0	54448	
6575	0	54496	
6576	0	54544	
6577	0	54608	
6578	0	54648	
6579	0	54720	
6580	0	54760	
6581	0	54832	
6582	0	54880	
6583	0	54936	
6584	0	54984	
6585	0	55048	
6586	0	55088	
6587	0	55160	
6588	0	55192	
6589	0	55264	
6590	0	55304	
6591	0	55360	
6592	0	55408	
6593	0	55472	
6594	0	55512	
6595	0	55576	
6596	0	55632	
6597	0	55680	
6598	0	55720	
6599	0	55792	
6600	0	55856	
6601	0	55888	
6602	0	55928	
6603	0	55992	
6604	0	56032	
6605	0	56096	
6606	0	56128	
6607	0	56184	
6608	0	56224	
6609	0	56288	
6610	0	56336	
6611	0	56400	
6612	0	56440	
6613	0	56496	
6614	0	56544	
6615	0	56600	
6616	0	56648	
6617	0	56672	
6618	0	56736	
6619	0	56776	
6620	0	56832	
6621	0	56888	
6622	0	56928	
6623	0	56968	
6624	0	57024	
6625	0	57064	
6626	0	57104	
6627	0	57152	
6628	0	57208	
6629	0	57248	
6630	0	57296	
6631	0	57344	
6632	0	57384	
6633	0	57440	
6634	0	57472	
6635	0	57512	
6636	0	57560	
6637	0	57616	
6638	0	57640	
6639	0	57696	
6640	0	57736	
6641	0	57768	
6642	0	57808	
6643	0	57848	
6644	0	57888	
6645	0	57952	
6646	0	57976	
6647	0	58024	
6648	0	58064	
6649	0	58112	
6650	0	58152	
6651	0	58176	
6652	0	58224	
6653	0	58280	
6654	0	58312	
6655	0	58344	
6656	0	58368	
6657	0	58408	
6658	0	58456	
6659	0	58504	
6660	0	58528	
6661	0	58560	
6662	0	58608	
6663	0	58640	
6664	0	58672	
6665	0	58720	
6666	0	58768	
6667	0	58800	
6668	0	58840	
6669	0	58872	
6670	0	58888	
6671	0	58936	
6672	0	58976	
6673	0	59016	
6674	0	59040	
6675	0	59088	
6676	0	59112	
6677	0	59136	
6678	0	59176	
6679	0	59208	
6680	0	59248	
6681	0	59264	
6682	0	59320	
6683	0	59344	
6684	0	59368	
6685	0	59408	
6686	0	59448	
6687	0	59464	
6688	0	59512	
6689	0	59552	
6690	0	59584	
6691	0	59608	
6692	0	59648	
6693	0	59648	
6694	0	59720	
6695	0	59744	
6696	0	59768	
6697	0	59800	
6698	0	59808	
6699	0	59848	
6700	0	59888	
6701	0	59936	
6702	0	59944	
6703	0	59952	
6704	0	60000	
6705	0	60028	
6706	0	60064	
6707	0	60088	
6708	0	60096	
6709	0	60152	
6710	0	60168	
6711	0	60176	
6712	0	60224	
6713	0	60256	
6714	0	60264	
6715	0	60320	
6716	0	60320	
6717	0	60352	
6718	0	60376	
6719	0	60384	
6720	0	60424	
6721	0	60440	
6722	0	60464	
6723	0	60480	
6724	0	60520	
6725	0	60536	
6726	0	60552	
6727	0	60576	
6728	0	60608	
6729	0	60632	
6730	0	60648	
6731	0	60672	
6732	0	60680	
6733	0	60704	
6734	0	60744	
6735	0	60768	
6736	0	60776	
6737	0	60800	
6738	0	60824	
6739	0	60832	
6740	0	60864	
6741	0	60864	
6742	0	60896	
6743	0	60912	
6744	0	60928	
6745	0	60960	
6746	0	60976	
6747	0	60992	
6748	0	61024	
6749	0	61024	
6750	0	61056	
6751	0	61064	
6752	0	61104	
6753	0	61096	
6754	0	61120	
6755	0	61152	
6756	0	61160	
6757	0	61184	
6758	0	61216	
6759	0	61216	
6760	0	61240	
6761	0	61264	
6762	0	61256	
6763	0	61288	
6764	0	61312	
6765	0	61320	
6766	0	61328	
6767	0	61352	
6768	0	61384	
6769	0	61384	
6770	0	61408	
6771	0	61416	
6772	0	61432	
6773	0	61456	
6774	0	61456	
6775	0	61472	
6776	0	61496	
6777	0	61528	
6778	0	61512	
6779	0	61536	
6780	0	61568	
6781	0	61560	
6782	0	61592	
6783	0	61608	
6784	0	61608	
6785	0	61632	
6786	0	61632	
6787	0	61672	
6788	0	61664	
6789	0	61680	
6790	0	61696	
6791	0	61728	
6792	0	61720	
6793	0	61744	
6794	0	61744	
6795	0	61760	
6796	0	61768	
6797	0	61784	
6798	0	61792	
6799	0	61820	
6800	0	61816	
6801	0	61832	
6802	0	61864	
6803	0	61856	
6804	0	61864	
6805	0	61872	
6806	0	61896	
6807	0	61920	
6808	0	61904	
6809	0	61920	
6810	0	61944	
6811	0	61952	
6812	0	61952	
6813	0	61952	
6814	0	61984	
6815	0	61992	
6816	0	61976	
6817	0	62024	
6818	0	62024	
6819	0	62048	
6820	0	62032	
6821	0	62064	
6822	0	62072	
6823	0	62080	
6824	0	62056	
6825	0	62080	
6826	0	62112	
6827	0	62120	
6828	0	62112	
6829	0	62152	
6830	0	62160	
6831	0	62160	
6832	0	62176	
6833	0	62176	
6834	0	62176	
6835	0	62208	
6836	0	62208	
6837	0	62208	
6838	0	62216	
6839	0	62240	
6840	0	62248	
6841	0	62256	
6842	0	62264	
6843	0	62248	
6844	0	62264	
6845	0	62288	
6846	0	62288	
6847	0	62296	
6848	0	62304	
6849	0	62328	
6850	0	62312	
6851	0	62312	
6852	0	62344	
6853	0	62344	
6854	0	62344	
6855	0	62352	
6856	0	62352	
6857	0	62376	
6858	0	62376	
6859	0	62384	
6860	0	62384	
6861	0	62384	
6862	0	62400	
6863	0	62384	
6864	0	62400	
6865	0	62408	
6866	0	62376	
6867	0	62408	
6868	0	62408	
6869	0	62424	
6870	0	62432	
6871	0	62408	
6872	0	62444	
6873	0	62416	
6874	0	62432	
6875	0	62432	
6876	0	62432	
6877	0	62440	
6878	0	62432	
6879	0	62416	
6880	0	62432	
6881	0	62432	
6882	0	62432	
6883	0	62432	
6884	0	62424	
6885	0	62448	
6886	0	62424	
6887	0	62432	
6888	0	62400	
6889	0	62432	
6890	0	62424	
6891	0	62424	
6892	0	62416	
6893	0	62416	
6894	0	62416	
6895	0	62416	
6896	0	62408	
6897	0	62400	
6898	0	62416	
6899	0	62416	
6900	0	62400	
6901	0	62400	
6902	0	62400	
6903	0	62400	
6904	0	62400	
6905	0	62408	
6906	0	62384	
6907	0	62384	
6908	0	62376	
6909	0	62368	
6910	0	62368	
6911	0	62344	
6912	0	62344	
6913	0	62360	
6914	0	62328	
6915	0	62336	
6916	0	62336	
6917	0	62328	
6918	0	62328	
6919	0	62320	
6920	0	62304	
6921	0	62320	
6922	0	62312	
6923	0	62304	
6924	0	62296	
6925	0	62304	
6926	0	62280	
6927	0	62280	
6928	0	62280	
6929	0	62280	
6930	0	62296	
6931	0	62280	
6932	0	62272	
6933	0	62240	
6934	0	62272	
6935	0	62272	
6936	0	62272	
6937	0	62256	
6938	0	62248	
6939	0	62248	
6940	0	62256	
6941	0	62248	
6942	0	62256	
6943	0	62232	
6944	0	62224	
6945	0	62232	
6946	0	62224	
6947	0	62208	
6948	0	62192	
6949	0	62208	
6950	0	62200	
6951	0	62192	
6952	0	62176	
6953	0	62184	
6954	0	62160	
6955	0	62152	
6956	0	62168	
6957	0	62152	
6958	0	62144	
6959	0	62128	
6960	0	62144	
6961	0	62120	
6962	0	62128	
6963	0	62120	
6964	0	62104	
6965	0	62096	
6966	0	62112	
6967	0	62080	
6968	0	62088	
6969	0	62072	
6970	0	62088	
6971	0	62088	
6972	0	62072	
6973	0	62056	
6974	0	62056	
6975	0	62048	
6976	0	62024	
6977	0	62056	
6978	0	62048	
6979	0	62016	
6980	0	62024	
6981	0	62040	
6982	0	62032	
6983	0	62016	
6984	0	62024	
6985	0	62016	
6986	0	62000	
6987	0	62016	
6988	0	61992	
6989	0	62008	
6990	0	61992	
6991	0	62008	
6992	0	61984	
6993	0	61984	
6994	0	61992	
6995	0	61984	
6996	0	61992	
6997	0	61968	
6998	0	61984	
6999	0	61960	
7000	0	61976	
7001	0	61984	
7002	0	61976	
7003	0	61984	
7004	0	61976	
7005	0	61976	
7006	0	61976	
7007	0	61960	
7008	0	61952	
7009	0	61944	
7010	0	61960	
7011	0	61960	
7012	0	61936	
7013	0	61944	
7014	0	61944	
7015	0	61944	
7016	0	61936	
7017	0	61936	
7018	0	61936	
7019	0	61928	
7020	0	61948	
7021	0	61936	
7022	0	61928	
7023	0	61920	
7024	0	61928	
7025	0	61928	
7026	0	61928	
7027	0	61920	
7028	0	61936	
7029	0	61920	
7030	0	61904	
7031	0	61920	
7032	0	61896	
7033	0	61912	
7034	0	61896	
7035	0	61912	
7036	0	61904	
7037	0	61896	
7038	0	61896	
7039	0	61888	
7040	0	61888	
7041	0	61896	
7042	0	61904	
7043	0	61888	
7044	0	61888	
7045	0	61888	
7046	0	61888	
7047	0	61880	
7048	0	61888	
7049	0	61864	
7050	0	61872	
7051	0	61888	
7052	0	61864	
7053	0	61856	
7054	0	61856	
7055	0	61840	
7056	0	61864	
7057	0	61832	
7058	0	61856	
7059	0	61840	
7060	0	61832	
7061	0	61832	
7062	0	61832	
7063	0	61832	
7064	0	61824	
7065	0	61816	
7066	0	61808	
7067	0	61808	
7068	0	61816	
7069	0	61808	
7070	0	61800	
7071	0	61800	
7072	0	61800	
7073	0	61800	
7074	0	61768	
7075	0	61792	
7076	0	61784	
7077	0	61784	
7078	0	61784	
7079	0	61784	
7080	0	61776	
7081	0	61760	
7082	0	61760	
7083	0	61760	
7084	0	61760	
7085	0	61744	
7086	0	61760	
7087	0	61736	
7088	0	61736	
7089	0	61736	
7090	0	61728	
7091	0	61728	
7092	0	61728	
7093	0	61720	
7094	0	61696	
7095	0	61704	
7096	0	61704	
7097	0	61680	
7098	0	61672	
7099	0	61696	
7100	0	61696	
7101	0	61704	
7102	0	61680	
7103	0	61672	
7104	0	61656	
7105	0	61664	
7106	0	61648	
7107	0	61648	
7108	0	61632	
7109	0	61632	
7110	0	61648	
7111	0	61640	
7112	0	61648	
7113	0	61632	
7114	0	61624	
7115	0	61608	
7116	0	61616	
7117	0	61616	
7118	0	61608	
7119	0	61600	
7120	0	61592	
7121	0	61600	
7122	0	61592	
7123	0	61568	
7124	0	61576	
7125	0	61560	
7126	0	61552	
7127	0	61584	
7128	0	61560	
7129	0	61544	
7130	0	61544	
7131	0	61528	
7132	0	61536	
7133	0	61536	
7134	0	61528	
7135	0	61520	
7136	0	61512	
7137	0	61512	
7138	0	61488	
7139	0	61488	
7140	0	61496	
7141	0	61488	
7142	0	61472	
7143	0	61464	
7144	0	61456	
7145	0	61440	
7146	0	61432	
7147	0	61424	
7148	0	61416	
7149	0	61408	
7150	0	61408	
7151	0	61392	
7152	0	61384	
7153	0	61376	
7154	0	61360	
7155	0	61352	
7156	0	61344	
7157	0	61352	
7158	0	61352	
7159	0	61336	
7160	0	61320	
7161	0	61312	
7162	0	61312	
7163	0	61296	
7164	0	61280	
7165	0	61256	
7166	0	61288	
7167	0	61232	
7168	0	61248	
7169	0	61240	
7170	0	61200	
7171	0	61224	
7172	0	61208	
7173	0	61200	
7174	0	61184	
7175	0	61184	
7176	0	61160	
7177	0	61160	
7178	0	61144	
7179	0	61136	
7180	0	61128	
7181	0	61120	
7182	0	61104	
7183	0	61112	
7184	0	61096	
7185	0	61088	
7186	0	61072	
7187	0	61064	
7188	0	61040	
7189	0	61064	
7190	0	61032	
7191	0	61024	
7192	0	61008	
7193	0	61016	
7194	0	60992	
7195	0	60992	
7196	0	60976	
7197	0	60984	
7198	0	60960	
7199	0	60960	
7200	0	60944	
7201	0	60920	
7202	0	60928	
7203	0	60912	
7204	0	60904	
7205	0	60872	
7206	0	60880	
7207	0	60856	
7208	0	60864	
7209	0	60864	
7210	0	60840	
7211	0	60824	
7212	0	60824	
7213	0	60808	
7214	0	60800	
7215	0	60768	
7216	0	60760	
7217	0	60744	
7218	0	60736	
7219	0	60736	
7220	0	60720	
7221	0	60712	
7222	0	60704	
7223	0	60672	
7224	0	60672	
7225	0	60656	
7226	0	60632	
7227	0	60624	
7228	0	60616	
7229	0	60624	
7230	0	60576	
7231	0	60576	
7232	0	60560	
7233	0	60536	
7234	0	60528	
7235	0	60504	
7236	0	60504	
7237	0	60480	
7238	0	60480	
7239	0	60480	
7240	0	60440	
7241	0	60416	
7242	0	60416	
7243	0	60400	
7244	0	60368	
7245	0	60360	
7246	0	60352	
7247	0	60352	
7248	0	60320	
7249	0	60312	
7250	0	60296	
7251	0	60280	
7252	0	60256	
7253	0	60256	
7254	0	60232	
7255	0	60232	
7256	0	60192	
7257	0	60200	
7258	0	60176	
7259	0	60160	
7260	0	60136	
7261	0	60128	
7262	0	60120	
7263	0	60080	
7264	0	60080	
7265	0	60064	
7266	0	60056	
7267	0	60048	
7268	0	60008	
7269	0	60000	
7270	0	59984	
7271	0	59968	
7272	0	59936	
7273	0	59936	
7274	0	59920	
7275	0	59896	
7276	0	59896	
7277	0	59872	
7278	0	59840	
7279	0	59824	
7280	0	59808	
7281	0	59800	
7282	0	59768	
7283	0	59760	
7284	0	59736	
7285	0	59736	
7286	0	59696	
7287	0	59672	
7288	0	59664	
7289	0	59632	
7290	0	59624	
7291	0	59600	
7292	0	59584	
7293	0	59552	
7294	0	59544	
7295	0	59520	
7296	0	59496	
7297	0	59496	
7298	0	59448	
7299	0	59432	
7300	0	59400	
7301	0	59376	
7302	0	59360	
7303	0	59336	
7304	0	59312	
7305	0	59280	
7306	0	59256	
7307	0	59232	
7308	0	59224	
7309	0	59184	
7310	0	59160	
7311	0	59120	
7312	0	59120	
7313	0	59072	
7314	0	59040	
7315	0	59032	
7316	0	59000	
7317	0	58968	
7318	0	58920	
7319	0	58920	
7320	0	58880	
7321	0	58848	
7322	0	58832	
7323	0	58784	
7324	0	58760	
7325	0	58760	
7326	0	58712	
7327	0	58688	
7328	0	58656	
7329	0	58624	
7330	0	58592	
7331	0	58560	
7332	0	58528	
7333	0	58512	
7334	0	58472	
7335	0	58440	
7336	0	58392	
7337	0	58360	
7338	0	58336	
7339	0	58304	
7340	0	58280	
7341	0	58248	
7342	0	58232	
7343	0	58184	
7344	0	58152	
7345	0	58128	
7346	0	58088	
7347	0	58056	
7348	0	58032	
7349	0	58008	
7350	0	57976	
7351	0	57944	
7352	0	57904	
7353	0	57880	
7354	0	57848	
7355	0	57824	
7356	0	57792	
7357	0	57760	
7358	0	57720	
7359	0	57688	
7360	0	57672	
7361	0	57640	
7362	0	57600	
7363	0	57576	
7364	0	57536	
7365	0	57520	
7366	0	57496	
7367	0	57464	
7368	0	57432	
7369	0	57408	
7370	0	57360	
7371	0	57328	
7372	0	57312	
7373	0	57280	
7374	0	57256	
7375	0	57216	
7376	0	57200	
7377	0	57184	
7378	0	57144	
7379	0	57104	
7380	0	57088	
7381	0	57048	
7382	0	57032	
7383	0	57000	
7384	0	56960	
7385	0	56944	
7386	0	56936	
7387	0	56896	
7388	0	56880	
7389	0	56856	
7390	0	56816	
7391	0	56800	
7392	0	56768	
7393	0	56736	
7394	0	56704	
7395	0	56696	
7396	0	56640	
7397	0	56632	
7398	0	56616	
7399	0	56576	
7400	0	56544	
7401	0	56512	
7402	0	56488	
7403	0	56456	
7404	0	56432	
7405	0	56416	
7406	0	56368	
7407	0	56352	
7408	0	56336	
7409	0	56296	
7410	0	56256	
7411	0	56256	
7412	0	56232	
7413	0	56184	
7414	0	56168	
7415	0	56136	
7416	0	56112	
7417	0	56096	
7418	0	56056	
7419	0	56040	
7420	0	56000	
7421	0	55984	
7422	0	55936	
7423	0	55904	
7424	0	55872	
7425	0	55856	
7426	0	55832	
7427	0	55792	
7428	0	55784	
7429	0	55744	
7430	0	55720	
7431	0	55704	
7432	0	55648	
7433	0	55632	
7434	0	55600	
7435	0	55568	
7436	0	55560	
7437	0	55512	
7438	0	55488	
7439	0	55464	
7440	0	55424	
7441	0	55392	
7442	0	55376	
7443	0	55344	
7444	0	55304	
7445	0	55288	
7446	0	55264	
7447	0	55224	
7448	0	55200	
7449	0	55168	
7450	0	55152	
7451	0	55112	
7452	0	55072	
7453	0	55056	
7454	0	55032	
7455	0	55000	
7456	0	54976	
7457	0	54952	
7458	0	54920	
7459	0	54888	
7460	0	54872	
7461	0	54816	
7462	0	54800	
7463	0	54776	
7464	0	54752	
7465	0	54720	
7466	0	54680	
7467	0	54680	
7468	0	54640	
7469	0	54624	
7470	0	54568	
7471	0	54568	
7472	0	54536	
7473	0	54512	
7474	0	54480	
7475	0	54464	
7476	0	54440	
7477	0	54408	
7478	0	54368	
7479	0	54360	
7480	0	54344	
7481	0	54304	
7482	0	54264	
7483	0	54256	
7484	0	54232	
7485	0	54216	
7486	0	54184	
7487	0	54160	
7488	0	54160	
7489	0	54112	
7490	0	54096	
7491	0	54080	
7492	0	54040	
7493	0	54056	
7494	0	54016	
7495	0	54008	
7496	0	53976	
7497	0	53952	
7498	0	53952	
7499	0	53920	
7500	0	53896	
7501	0	53872	
7502	0	53848	
7503	0	53848	
7504	0	53808	
7505	0	53800	
7506	0	53784	
7507	0	53768	
7508	0	53736	
7509	0	53728	
7510	0	53704	
7511	0	53680	
7512	0	53656	
7513	0	53656	
7514	0	53616	
7515	0	53608	
7516	0	53592	
7517	0	53592	
7518	0	53560	
7519	0	53544	
7520	0	53520	
7521	0	53504	
7522	0	53480	
7523	0	53464	
7524	0	53440	
7525	0	53440	
7526	0	53416	
7527	0	53376	
7528	0	53376	
7529	0	53336	
7530	0	53336	
7531	0	53312	
7532	0	53304	
7533	0	53280	
7534	0	53248	
7535	0	53240	
7536	0	53224	
7537	0	53200	
7538	0	53184	
7539	0	53168	
7540	0	53152	
7541	0	53152	
7542	0	53120	
7543	0	53096	
7544	0	53080	
7545	0	53064	
7546	0	53056	
7547	0	53008	
7548	0	53000	
7549	0	52992	
7550	0	52976	
7551	0	52936	
7552	0	52928	
7553	0	52896	
7554	0	52888	
7555	0	52864	
7556	0	52840	
7557	0	52832	
7558	0	52832	
7559	0	52800	
7560	0	52768	
7561	0	52752	
7562	0	52728	
7563	0	52704	
7564	0	52704	
7565	0	52680	
7566	0	52664	
7567	0	52656	
7568	0	52624	
7569	0	52608	
7570	0	52592	
7571	0	52584	
7572	0	52568	
7573	0	52544	
7574	0	52528	
7575	0	52512	
7576	0	52480	
7577	0	52472	
7578	0	52464	
7579	0	52432	
7580	0	52424	
7581	0	52408	
7582	0	52416	
7583	0	52416	
7584	0	52376	
7585	0	52368	
7586	0	52344	
7587	0	52328	
7588	0	52328	
7589	0	52320	
7590	0	52312	
7591	0	52288	
7592	0	52296	
7593	0	52272	
7594	0	52272	
7595	0	52248	
7596	0	52240	
7597	0	52216	
7598	0	52216	
7599	0	52216	
7600	0	52208	
7601	0	52200	
7602	0	52192	
7603	0	52168	
7604	0	52160	
7605	0	52160	
7606	0	52152	
7607	0	52128	
7608	0	52136	
7609	0	52096	
7610	0	52096	
7611	0	52088	
7612	0	52064	
7613	0	52072	
7614	0	52072	
7615	0	52048	
7616	0	52040	
7617	0	52032	
7618	0	52032	
7619	0	52000	
7620	0	51992	
7621	0	51992	
7622	0	51968	
7623	0	51968	
7624	0	51960	
7625	0	51936	
7626	0	51928	
7627	0	51912	
7628	0	51920	
7629	0	51904	
7630	0	51888	
7631	0	51904	
7632	0	51880	
7633	0	51872	
7634	0	51856	
7635	0	51840	
7636	0	51848	
7637	0	51832	
7638	0	51824	
7639	0	51808	
7640	0	51800	
7641	0	51792	
7642	0	51800	
7643	0	51760	
7644	0	51776	
7645	0	51752	
7646	0	51744	
7647	0	51752	
7648	0	51744	
7649	0	51728	
7650	0	51728	
7651	0	51712	
7652	0	51704	
7653	0	51720	
7654	0	51696	
7655	0	51688	
7656	0	51672	
7657	0	51680	
7658	0	51680	
7659	0	51664	
7660	0	51656	
7661	0	51656	
7662	0	51648	
7663	0	51648	
7664	0	51632	
7665	0	51632	
7666	0	51616	
7667	0	51632	
7668	0	51616	
7669	0	51616	
7670	0	51608	
7671	0	51600	
7672	0	51592	
7673	0	51592	
7674	0	51600	
7675	0	51576	
7676	0	51568	
7677	0	51568	
7678	0	51552	
7679	0	51552	
7680	0	51560	
7681	0	51552	
7682	0	51536	
7683	0	51536	
7684	0	51536	
7685	0	51520	
7686	0	51504	
7687	0	51504	
7688	0	51504	
7689	0	51512	
7690	0	51504	
7691	0	51504	
7692	0	51488	
7693	0	51496	
7694	0	51488	
7695	0	51480	
7696	0	51480	
7697	0	51472	
7698	0	51464	
7699	0	51456	
7700	0	51456	
7701	0	51456	
7702	0	51440	
7703	0	51448	
7704	0	51440	
7705	0	51432	
7706	0	51448	
7707	0	51424	
7708	0	51416	
7709	0	51432	
7710	0	51424	
7711	0	51416	
7712	0	51392	
7713	0	51408	
7714	0	51408	
7715	0	51392	
7716	0	51392	
7717	0	51384	
7718	0	51392	
7719	0	51392	
7720	0	51384	
7721	0	51368	
7722	0	51368	
7723	0	51360	
7724	0	51360	
7725	0	51344	
7726	0	51352	
7727	0	51344	
7728	0	51344	
7729	0	51336	
7730	0	51336	
7731	0	51320	
7732	0	51312	
7733	0	51312	
7734	0	51304	
7735	0	51312	
7736	0	51304	
7737	0	51272	
7738	0	51288	
7739	0	51256	
7740	0	51256	
7741	0	51256	
7742	0	51256	
7743	0	51232	
7744	0	51240	
7745	0	51216	
7746	0	51216	
7747	0	51216	
7748	0	51208	
7749	0	51192	
7750	0	51176	
7751	0	51176	
7752	0	51168	
7753	0	51168	
7754	0	51144	
7755	0	51136	
7756	0	51136	
7757	0	51112	
7758	0	51112	
7759	0	51088	
7760	0	51096	
7761	0	51080	
7762	0	51080	
7763	0	51064	
7764	0	51064	
7765	0	51048	
7766	0	51040	
7767	0	51040	
7768	0	51008	
7769	0	51000	
7770	0	50984	
7771	0	50976	
7772	0	50968	
7773	0	50952	
7774	0	50952	
7775	0	50936	
7776	0	50920	
7777	0	50912	
7778	0	50904	
7779	0	50888	
7780	0	50880	
7781	0	50856	
7782	0	50848	
7783	0	50824	
7784	0	50824	
7785	0	50824	
7786	0	50792	
7787	0	50776	
7788	0	50784	
7789	0	50752	
7790	0	50752	
7791	0	50728	
7792	0	50704	
7793	0	50704	
7794	0	50696	
7795	0	50664	
7796	0	50656	
7797	0	50640	
7798	0	50632	
7799	0	50608	
7800	0	50608	
7801	0	50592	
7802	0	50576	
7803	0	50552	
7804	0	50544	
7805	0	50528	
7806	0	50520	
7807	0	50496	
7808	0	50488	
7809	0	50464	
7810	0	50464	
7811	0	50432	
7812	0	50424	
7813	0	50400	
7814	0	50384	
7815	0	50368	
7816	0	50360	
7817	0	50344	
7818	0	50312	
7819	0	50312	
7820	0	50304	
7821	0	50288	
7822	0	50264	
7823	0	50248	
7824	0	50248	
7825	0	50224	
7826	0	50200	
7827	0	50200	
7828	0	50168	
7829	0	50160	
7830	0	50160	
7831	0	50120	
7832	0	50112	
7833	0	50112	
7834	0	50080	
7835	0	50080	
7836	0	50048	
7837	0	50040	
7838	0	50040	
7839	0	50016	
7840	0	49984	
7841	0	49968	
7842	0	49968	
7843	0	49952	
7844	0	49936	
7845	0	49920	
7846	0	49912	
7847	0	49888	
7848	0	49880	
7849	0	49856	
7850	0	49840	
7851	0	49824	
7852	0	49808	
7853	0	49800	
7854	0	49768	
7855	0	49752	
7856	0	49760	
7857	0	49728	
7858	0	49712	
7859	0	49696	
7860	0	49680	
7861	0	49664	
7862	0	49648	
7863	0	49648	
7864	0	49624	
7865	0	49608	
7866	0	49576	
7867	0	49576	
7868	0	49576	
7869	0	49544	
7870	0	49520	
7871	0	49512	
7872	0	49488	
7873	0	49480	
7874	0	49456	
7875	0	49440	
7876	0	49440	
7877	0	49416	
7878	0	49376	
7879	0	49376	
7880	0	49368	
7881	0	49344	
7882	0	49344	
7883	0	49328	
7884	0	49312	
7885	0	49288	
7886	0	49272	
7887	0	49248	
7888	0	49248	
7889	0	49224	
7890	0	49200	
7891	0	49200	
7892	0	49184	
7893	0	49176	
7894	0	49148	
7895	0	49120	
7896	0	49120	
7897	0	49112	
7898	0	49088	
7899	0	49072	
7900	0	49064	
7901	0	49040	
7902	0	49016	
7903	0	49032	
7904	0	49000	
7905	0	48984	
7906	0	48976	
7907	0	48952	
7908	0	48928	
7909	0	48928	
7910	0	48920	
7911	0	48896	
7912	0	48880	
7913	0	48872	
7914	0	48864	
7915	0	48832	
7916	0	48816	
7917	0	48808	
7918	0	48808	
7919	0	48776	
7920	0	48760	
7921	0	48752	
7922	0	48736	
7923	0	48720	
7924	0	48712	
7925	0	48704	
7926	0	48680	
7927	0	48656	
7928	0	48648	
7929	0	48640	
7930	0	48624	
7931	0	48616	
7932	0	48616	
7933	0	48592	
7934	0	48592	
7935	0	48560	
7936	0	48552	
7937	0	48544	
7938	0	48536	
7939	0	48504	
7940	0	48488	
7941	0	48496	
7942	0	48472	
7943	0	48472	
7944	0	48456	
7945	0	48440	
7946	0	48424	
7947	0	48416	
7948	0	48384	
7949	0	48384	
7950	0	48368	
7951	0	48344	
7952	0	48336	
7953	0	48328	
7954	0	48320	
7955	0	48312	
7956	0	48272	
7957	0	48288	
7958	0	48264	
7959	0	48248	
7960	0	48224	
7961	0	48224	
7962	0	48216	
7963	0	48192	
7964	0	48184	
7965	0	48160	
7966	0	48152	
7967	0	48152	
7968	0	48128	
7969	0	48112	
7970	0	48096	
7971	0	48080	
7972	0	48064	
7973	0	48064	
7974	0	48032	
7975	0	48032	
7976	0	48024	
7977	0	47992	
7978	0	47996	
7979	0	47968	
7980	0	47960	
7981	0	47944	
7982	0	47936	
7983	0	47920	
7984	0	47912	
7985	0	47880	
7986	0	47880	
7987	0	47872	
7988	0	47840	
7989	0	47840	
7990	0	47808	
7991	0	47808	
7992	0	47784	
7993	0	47792	
7994	0	47776	
7995	0	47744	
7996	0	47720	
7997	0	47720	
7998	0	47704	
7999	0	47696	
8000	0	47680	
8001	0	47664	
8002	0	47664	
8003	0	47632	
8004	0	47616	
8005	0	47608	
8006	0	47596	
8007	0	47576	
8008	0	47568	
8009	0	47552	
8010	0	47528	
8011	0	47520	
8012	0	47504	
8013	0	47496	
8014	0	47464	
8015	0	47472	
8016	0	47456	
8017	0	47432	
8018	0	47424	
8019	0	47416	
8020	0	47392	
8021	0	47384	
8022	0	47360	
8023	0	47352	
8024	0	47336	
8025	0	47312	
8026	0	47296	
8027	0	47296	
8028	0	47272	
8029	0	47264	
8030	0	47232	
8031	0	47224	
8032	0	47224	
8033	0	47200	
8034	0	47192	
8035	0	47168	
8036	0	47168	
8037	0	47136	
8038	0	47128	
8039	0	47104	
